Position	Value
-200	4488.2686
-199	4338.5823
-198	4521.1594
-197	4417.585
-196	4776.7129
-195	4518.5658
-194	4748.5275
-193	4833.2359
-192	4481.1329
-191	4567.5418
-190	4958.1582
-189	4880.8061
-188	4754.1416
-187	4926.4408
-186	4962.1233
-185	4817.2008
-184	4892.5916
-183	4931.7589
-182	4974.28
-181	4670.2537
-180	4564.2496
-179	4400.5529
-178	4503.499
-177	4605.521
-176	4819.4115
-175	4931.1795
-174	4880.1597
-173	4994.3653
-172	5026.3025
-171	4637.1827
-170	5084.3806
-169	4961.4671
-168	5041.5298
-167	5232.6645
-166	5089.0148
-165	5297.1817
-164	4943.5282
-163	5240.318
-162	5090.6051
-161	5039.4997
-160	5079.7223
-159	5062.2373
-158	5010.0841
-157	4957.0849
-156	5045.1254
-155	5051.5489
-154	4986.254
-153	5217.1194
-152	5130.5135
-151	5545.7715
-150	5106.8122
-149	5093.2275
-148	5474.8206
-147	5146.479
-146	5024.3161
-145	5209.2557
-144	5382.2282
-143	5195.3963
-142	5248.9368
-141	5247.7679
-140	5286.2478
-139	5100.3327
-138	5275.1978
-137	5012.2132
-136	5481.5113
-135	5355.2181
-134	5291.7023
-133	5343.0869
-132	5582.3834
-131	5457.7771
-130	5417.8711
-129	5327.7387
-128	5517.6498
-127	5550.9726
-126	5235.6767
-125	5121.129
-124	5385.247
-123	5379.2712
-122	5161.603
-121	5243.9811
-120	5227.1872
-119	5434.5369
-118	5156.8379
-117	5127.7222
-116	5437.4124
-115	5070.9246
-114	5419.51
-113	5123.7501
-112	5489.1285
-111	5366.2613
-110	5531.523
-109	5441.2205
-108	5473.9726
-107	5353.8173
-106	5405.9048
-105	5558.0056
-104	5594.9624
-103	5514.6193
-102	5692.362
-101	5657.2974
-100	6031.9877
-99	5863.1672
-98	6293.053
-97	5920.7604
-96	6287.413
-95	6252.3823
-94	6184.1943
-93	6551.1791
-92	6646.4508
-91	6507.0809
-90	6582.1735
-89	6605.2208
-88	6605.1291
-87	6555.601
-86	6501.8089
-85	6372.5444
-84	6677.3416
-83	6486.5843
-82	6226.2331
-81	6497.8854
-80	6561.4014
-79	6693.9263
-78	6730.1657
-77	7192.3886
-76	6910.4816
-75	6856.2718
-74	6901.6107
-73	6664.6286
-72	7183.8605
-71	6932.4111
-70	6754.1627
-69	7112.6789
-68	7080.3226
-67	7246.8022
-66	7330.536
-65	6917.0925
-64	7312.3371
-63	7399.9882
-62	7381.674
-61	7192.1962
-60	7304.6501
-59	7318.9848
-58	7332.7755
-57	7762.2198
-56	7227.1364
-55	7359.9688
-54	7212.0178
-53	6964.4034
-52	6900.1964
-51	6666.2109
-50	6704.2516
-49	6678.7518
-48	6918.7612
-47	6760.1075
-46	6549.3726
-45	6761.1725
-44	6649.5482
-43	6852.2258
-42	6580.1973
-41	6497.8042
-40	6581.8512
-39	6861.8154
-38	6786.1494
-37	6644.8928
-36	7405.3937
-35	7665.0564
-34	7578.7705
-33	7930.4309
-32	7806.8632
-31	7632.7196
-30	7378.5603
-29	7532.266
-28	7248.1824
-27	6992.2303
-26	7207.5829
-25	7413.3471
-24	7856.8249
-23	7520.5028
-22	7715.1109
-21	8223.1191
-20	8178.7202
-19	8287.4569
-18	8720.8467
-17	8689.0425
-16	8756.9321
-15	9582.728
-14	9492.0771
-13	10200.1757
-12	11035.0339
-11	11665.8368
-10	12386.3921
-9	13390.7242
-8	14055.3886
-7	14881.9737
-6	15910.6522
-5	17045.7938
-4	19244.007
-3	21514.0879
-2	23112.0151
-1	25961.2142
0	101166.8589
1	25961.2142
2	23112.0151
3	21514.0879
4	19244.007
5	17045.7938
6	15910.6522
7	14881.9737
8	14055.3886
9	13390.7242
10	12386.3921
11	11665.8368
12	11035.0339
13	10200.1757
14	9492.0771
15	9582.728
16	8756.9321
17	8689.0425
18	8720.8467
19	8287.4569
20	8178.7202
21	8223.1191
22	7715.1109
23	7520.5028
24	7856.8249
25	7413.3471
26	7207.5829
27	6992.2303
28	7248.1824
29	7532.266
30	7378.5603
31	7632.7196
32	7806.8632
33	7930.4309
34	7578.7705
35	7665.0564
36	7405.3937
37	6644.8928
38	6786.1494
39	6861.8154
40	6581.8512
41	6497.8042
42	6580.1973
43	6852.2258
44	6649.5482
45	6761.1725
46	6549.3726
47	6760.1075
48	6918.7612
49	6678.7518
50	6704.2516
51	6666.2109
52	6900.1964
53	6964.4034
54	7212.0178
55	7359.9688
56	7227.1364
57	7762.2198
58	7332.7755
59	7318.9848
60	7304.6501
61	7192.1962
62	7381.674
63	7399.9882
64	7312.3371
65	6917.0925
66	7330.536
67	7246.8022
68	7080.3226
69	7112.6789
70	6754.1627
71	6932.4111
72	7183.8605
73	6664.6286
74	6901.6107
75	6856.2718
76	6910.4816
77	7192.3886
78	6730.1657
79	6693.9263
80	6561.4014
81	6497.8854
82	6226.2331
83	6486.5843
84	6677.3416
85	6372.5444
86	6501.8089
87	6555.601
88	6605.1291
89	6605.2208
90	6582.1735
91	6507.0809
92	6646.4508
93	6551.1791
94	6184.1943
95	6252.3823
96	6287.413
97	5920.7604
98	6293.053
99	5863.1672
100	6031.9877
101	5657.2974
102	5692.362
103	5514.6193
104	5594.9624
105	5558.0056
106	5405.9048
107	5353.8173
108	5473.9726
109	5441.2205
110	5531.523
111	5366.2613
112	5489.1285
113	5123.7501
114	5419.51
115	5070.9246
116	5437.4124
117	5127.7222
118	5156.8379
119	5434.5369
120	5227.1872
121	5243.9811
122	5161.603
123	5379.2712
124	5385.247
125	5121.129
126	5235.6767
127	5550.9726
128	5517.6498
129	5327.7387
130	5417.8711
131	5457.7771
132	5582.3834
133	5343.0869
134	5291.7023
135	5355.2181
136	5481.5113
137	5012.2132
138	5275.1978
139	5100.3327
140	5286.2478
141	5247.7679
142	5248.9368
143	5195.3963
144	5382.2282
145	5209.2557
146	5024.3161
147	5146.479
148	5474.8206
149	5093.2275
150	5106.8122
151	5545.7715
152	5130.5135
153	5217.1194
154	4986.254
155	5051.5489
156	5045.1254
157	4957.0849
158	5010.0841
159	5062.2373
160	5079.7223
161	5039.4997
162	5090.6051
163	5240.318
164	4943.5282
165	5297.1817
166	5089.0148
167	5232.6645
168	5041.5298
169	4961.4671
170	5084.3806
171	4637.1827
172	5026.3025
173	4994.3653
174	4880.1597
175	4931.1795
176	4819.4115
177	4605.521
178	4503.499
179	4400.5529
180	4564.2496
181	4670.2537
182	4974.28
183	4931.7589
184	4892.5916
185	4817.2008
186	4962.1233
187	4926.4408
188	4754.1416
189	4880.8061
190	4958.1582
191	4567.5418
192	4481.1329
193	4833.2359
194	4748.5275
195	4518.5658
196	4776.7129
197	4417.585
198	4521.1594
199	4338.5823
200	4488.2686
