Position	Value
-200	233205.5694
-199	234842.9368
-198	237141.2751
-197	234958.8715
-196	236861.4017
-195	240605.024
-194	238736.9468
-193	240498.4094
-192	242684.835
-191	240986.1438
-190	243675.665
-189	244146.3033
-188	242300.0468
-187	242251.1262
-186	242501.9943
-185	241950.0337
-184	241983.3296
-183	243906.6598
-182	241335.7017
-181	239630.8415
-180	240754.6697
-179	239743.9565
-178	237563.7575
-177	238543.383
-176	236826.1366
-175	237952.2197
-174	238141.7543
-173	237454.8257
-172	235971.2965
-171	240506.7655
-170	239556.3327
-169	240638.1761
-168	240639.2466
-167	241444.4581
-166	243086.5222
-165	245376.1196
-164	245896.5513
-163	247034.2503
-162	248959.0749
-161	248547.8061
-160	250145.272
-159	251576.8288
-158	252681.7335
-157	252500.0936
-156	252149.8042
-155	252208.9246
-154	253591.8279
-153	254589.2467
-152	250689.4175
-151	252131.0017
-150	250257.4823
-149	247000.4264
-148	249591.227
-147	248040.5724
-146	245791.2548
-145	245079.1061
-144	244730.0367
-143	242529.003
-142	244227.4924
-141	244623.6015
-140	245237.5585
-139	244240.208
-138	246010.898
-137	246782.7469
-136	248819.9399
-135	251852.4038
-134	251934.691
-133	254070.145
-132	256398.184
-131	256101.1226
-130	258472.6942
-129	262766.6198
-128	261411.7864
-127	264177.2995
-126	265804.7038
-125	264191.6667
-124	267047.7901
-123	269215.9666
-122	266390.9449
-121	264597.2507
-120	264925.6637
-119	263284.1863
-118	259253.2678
-117	257785.8862
-116	255256.448
-115	253555.0581
-114	253911.0584
-113	251543.7766
-112	252483.1084
-111	251579.7802
-110	249517.6814
-109	250548.1977
-108	251330.1747
-107	254470.1801
-106	254228.1239
-105	259285.5322
-104	258711.7564
-103	259570.8401
-102	263994.3335
-101	265373.7898
-100	267969.3871
-99	273205.3412
-98	272840.0065
-97	277856.2525
-96	279647.1586
-95	282428.9508
-94	279643.1628
-93	285946.2455
-92	283643.4487
-91	284170.1324
-90	282004.5949
-89	279364.1413
-88	277466.9444
-87	273270.2475
-86	266496.9896
-85	264748.2398
-84	264622.801
-83	258298.933
-82	257847.1016
-81	255899.7149
-80	254528.7872
-79	259220.5788
-78	259808.5733
-77	257486.1722
-76	257060.6368
-75	261131.9854
-74	263969.1843
-73	264449.8336
-72	269142.1831
-71	270961.1861
-70	277392.4991
-69	281828.0052
-68	288095.5123
-67	293338.007
-66	298545.0651
-65	299383.2101
-64	302406.5642
-63	310646.6825
-62	310486.0285
-61	313130.2224
-60	311711.3087
-59	306247.7812
-58	299391.4163
-57	294235.881
-56	283124.2184
-55	275185.517
-54	274214.0754
-53	265908.6359
-52	265061.8237
-51	263198.4574
-50	260400.5619
-49	261490.6044
-48	262155.462
-47	262648.9717
-46	261178.7402
-45	266226.6442
-44	263882.6444
-43	269875.9058
-42	271535.2584
-41	273760.7581
-40	278180.2326
-39	284246.0571
-38	289764.1038
-37	298048.9052
-36	311810.0814
-35	319104.1004
-34	331265.9714
-33	346934.2664
-32	351108.5743
-31	361746.5203
-30	365916.0509
-29	359026.0599
-28	344352.3054
-27	325331.2705
-26	303206.9043
-25	295606.9055
-24	296290.3487
-23	291604.8314
-22	294040.5346
-21	297012.0598
-20	297964.9978
-19	302438.588
-18	310865.3699
-17	309139.8964
-16	314516.8064
-15	318075.2169
-14	323837.0986
-13	339357.7128
-12	363883.4497
-11	373499.2012
-10	389989.9904
-9	394057.3614
-8	406886.1263
-7	434645.1062
-6	449932.5189
-5	474536.2576
-4	484718.2988
-3	499979.2714
-2	521502.3151
-1	535331.8972
0	2877417.599
1	535331.8972
2	521502.3151
3	499979.2714
4	484718.2988
5	474536.2576
6	449932.5189
7	434645.1062
8	406886.1263
9	394057.3614
10	389989.9904
11	373499.2012
12	363883.4497
13	339357.7128
14	323837.0986
15	318075.2169
16	314516.8064
17	309139.8964
18	310865.3699
19	302438.588
20	297964.9978
21	297012.0598
22	294040.5346
23	291604.8314
24	296290.3487
25	295606.9055
26	303206.9043
27	325331.2705
28	344352.3054
29	359026.0599
30	365916.0509
31	361746.5203
32	351108.5743
33	346934.2664
34	331265.9714
35	319104.1004
36	311810.0814
37	298048.9052
38	289764.1038
39	284246.0571
40	278180.2326
41	273760.7581
42	271535.2584
43	269875.9058
44	263882.6444
45	266226.6442
46	261178.7402
47	262648.9717
48	262155.462
49	261490.6044
50	260400.5619
51	263198.4574
52	265061.8237
53	265908.6359
54	274214.0754
55	275185.517
56	283124.2184
57	294235.881
58	299391.4163
59	306247.7812
60	311711.3087
61	313130.2224
62	310486.0285
63	310646.6825
64	302406.5642
65	299383.2101
66	298545.0651
67	293338.007
68	288095.5123
69	281828.0052
70	277392.4991
71	270961.1861
72	269142.1831
73	264449.8336
74	263969.1843
75	261131.9854
76	257060.6368
77	257486.1722
78	259808.5733
79	259220.5788
80	254528.7872
81	255899.7149
82	257847.1016
83	258298.933
84	264622.801
85	264748.2398
86	266496.9896
87	273270.2475
88	277466.9444
89	279364.1413
90	282004.5949
91	284170.1324
92	283643.4487
93	285946.2455
94	279643.1628
95	282428.9508
96	279647.1586
97	277856.2525
98	272840.0065
99	273205.3412
100	267969.3871
101	265373.7898
102	263994.3335
103	259570.8401
104	258711.7564
105	259285.5322
106	254228.1239
107	254470.1801
108	251330.1747
109	250548.1977
110	249517.6814
111	251579.7802
112	252483.1084
113	251543.7766
114	253911.0584
115	253555.0581
116	255256.448
117	257785.8862
118	259253.2678
119	263284.1863
120	264925.6637
121	264597.2507
122	266390.9449
123	269215.9666
124	267047.7901
125	264191.6667
126	265804.7038
127	264177.2995
128	261411.7864
129	262766.6198
130	258472.6942
131	256101.1226
132	256398.184
133	254070.145
134	251934.691
135	251852.4038
136	248819.9399
137	246782.7469
138	246010.898
139	244240.208
140	245237.5585
141	244623.6015
142	244227.4924
143	242529.003
144	244730.0367
145	245079.1061
146	245791.2548
147	248040.5724
148	249591.227
149	247000.4264
150	250257.4823
151	252131.0017
152	250689.4175
153	254589.2467
154	253591.8279
155	252208.9246
156	252149.8042
157	252500.0936
158	252681.7335
159	251576.8288
160	250145.272
161	248547.8061
162	248959.0749
163	247034.2503
164	245896.5513
165	245376.1196
166	243086.5222
167	241444.4581
168	240639.2466
169	240638.1761
170	239556.3327
171	240506.7655
172	235971.2965
173	237454.8257
174	238141.7543
175	237952.2197
176	236826.1366
177	238543.383
178	237563.7575
179	239743.9565
180	240754.6697
181	239630.8415
182	241335.7017
183	243906.6598
184	241983.3296
185	241950.0337
186	242501.9943
187	242251.1262
188	242300.0468
189	244146.3033
190	243675.665
191	240986.1438
192	242684.835
193	240498.4094
194	238736.9468
195	240605.024
196	236861.4017
197	234958.8715
198	237141.2751
199	234842.9368
200	233205.5694
