Position	Value
-200	5923.9503
-199	6271.7297
-198	5695.0888
-197	6439.1585
-196	6421.6048
-195	6346.7983
-194	6386.9172
-193	7470.312
-192	7249.3715
-191	6633.7799
-190	7336.6625
-189	7375.959
-188	7055.0532
-187	6940.2454
-186	7212.5041
-185	7406.8135
-184	6880.0299
-183	7079.8252
-182	6960.8916
-181	6829.6615
-180	6723.5248
-179	6654.2459
-178	6431.1687
-177	6451.7492
-176	6771.4904
-175	6347.0767
-174	6808.2867
-173	6666.1884
-172	6358.3499
-171	6513.8361
-170	6805.4269
-169	6674.3172
-168	6519.0284
-167	6814.2677
-166	6733.7008
-165	6518.6466
-164	6959.8056
-163	7417.6608
-162	7167.922
-161	7300.8018
-160	7449.7484
-159	7313.5063
-158	7005.0989
-157	7339.9267
-156	6491.0637
-155	7083.1284
-154	7141.8135
-153	6802.1002
-152	7020.0818
-151	7181.3278
-150	7431.6959
-149	7306.1686
-148	7440.136
-147	7396.428
-146	6928.5164
-145	6844.9343
-144	7337.0582
-143	6809.8991
-142	6862.4153
-141	6635.4513
-140	7500.5597
-139	6825.6806
-138	6459.151
-137	6607.2224
-136	6903.0963
-135	6817.2756
-134	6973.7091
-133	7465.7778
-132	7347.5016
-131	7251.3849
-130	7622.0678
-129	7213.2327
-128	7739.5971
-127	7431.4818
-126	7601.9503
-125	7566.6971
-124	7227.8392
-123	7522.5329
-122	7611.8752
-121	7368.2028
-120	7558.1732
-119	7095.0542
-118	7233.4223
-117	7106.98
-116	7881.5777
-115	7351.4097
-114	6826.4483
-113	6640.0384
-112	7244.3718
-111	7067.1763
-110	6814.4453
-109	7164.914
-108	6728.3036
-107	6624.9219
-106	7036.1036
-105	7745.0954
-104	7479.5631
-103	7532.9565
-102	7752.5049
-101	7972.5184
-100	8081.4281
-99	8310.4109
-98	8289.2962
-97	8323.4116
-96	8838.0245
-95	8404.4968
-94	9044.7021
-93	8698.6193
-92	9165.4396
-91	8613.2896
-90	8363.7245
-89	8949.143
-88	8780.7285
-87	8361.6287
-86	7969.2788
-85	8286.0961
-84	8400.6715
-83	7933.8448
-82	7896.9637
-81	8417.8715
-80	8258.7628
-79	8441.7059
-78	7920.8776
-77	8729.9042
-76	8196.9262
-75	8385.5827
-74	8770.373
-73	8106.4859
-72	8793.6508
-71	8954.9996
-70	8851.6384
-69	9732.6098
-68	8768.4233
-67	9871.3227
-66	9223.3466
-65	9606.6624
-64	9550.1147
-63	9314.0029
-62	9743.3185
-61	9638.2793
-60	9345.0658
-59	9565.3817
-58	9244.4645
-57	9206.993
-56	8378.3104
-55	8439.2577
-54	8521.3154
-53	7955.4916
-52	8088.4338
-51	7476.4013
-50	7490.6985
-49	7541.5292
-48	7729.915
-47	7565.5586
-46	7940.959
-45	8329.3667
-44	7650.5612
-43	8024.7438
-42	7878.2525
-41	7763.777
-40	7996.075
-39	8206.3953
-38	8721.2776
-37	8853.5443
-36	10017.6046
-35	9968.8501
-34	9733.7236
-33	10513.1429
-32	10513.0176
-31	10281.5099
-30	10631.5345
-29	9998.4827
-28	8927.0753
-27	9217.7025
-26	9281.6588
-25	9353.3149
-24	8947.9264
-23	9178.2066
-22	9184.8897
-21	9452.7053
-20	9805.2906
-19	9849.045
-18	10523.0131
-17	10350.6502
-16	10754.4385
-15	11325.107
-14	10639.3433
-13	11984.6395
-12	12266.2328
-11	13314.5484
-10	14602.9792
-9	15339.5646
-8	15226.2431
-7	17139.5652
-6	17883.5287
-5	19014.6221
-4	22435.1276
-3	23112.1874
-2	26456.8364
-1	28087.8184
0	117135.1113
1	28087.8184
2	26456.8364
3	23112.1874
4	22435.1276
5	19014.6221
6	17883.5287
7	17139.5652
8	15226.2431
9	15339.5646
10	14602.9792
11	13314.5484
12	12266.2328
13	11984.6395
14	10639.3433
15	11325.107
16	10754.4385
17	10350.6502
18	10523.0131
19	9849.045
20	9805.2906
21	9452.7053
22	9184.8897
23	9178.2066
24	8947.9264
25	9353.3149
26	9281.6588
27	9217.7025
28	8927.0753
29	9998.4827
30	10631.5345
31	10281.5099
32	10513.0176
33	10513.1429
34	9733.7236
35	9968.8501
36	10017.6046
37	8853.5443
38	8721.2776
39	8206.3953
40	7996.075
41	7763.777
42	7878.2525
43	8024.7438
44	7650.5612
45	8329.3667
46	7940.959
47	7565.5586
48	7729.915
49	7541.5292
50	7490.6985
51	7476.4013
52	8088.4338
53	7955.4916
54	8521.3154
55	8439.2577
56	8378.3104
57	9206.993
58	9244.4645
59	9565.3817
60	9345.0658
61	9638.2793
62	9743.3185
63	9314.0029
64	9550.1147
65	9606.6624
66	9223.3466
67	9871.3227
68	8768.4233
69	9732.6098
70	8851.6384
71	8954.9996
72	8793.6508
73	8106.4859
74	8770.373
75	8385.5827
76	8196.9262
77	8729.9042
78	7920.8776
79	8441.7059
80	8258.7628
81	8417.8715
82	7896.9637
83	7933.8448
84	8400.6715
85	8286.0961
86	7969.2788
87	8361.6287
88	8780.7285
89	8949.143
90	8363.7245
91	8613.2896
92	9165.4396
93	8698.6193
94	9044.7021
95	8404.4968
96	8838.0245
97	8323.4116
98	8289.2962
99	8310.4109
100	8081.4281
101	7972.5184
102	7752.5049
103	7532.9565
104	7479.5631
105	7745.0954
106	7036.1036
107	6624.9219
108	6728.3036
109	7164.914
110	6814.4453
111	7067.1763
112	7244.3718
113	6640.0384
114	6826.4483
115	7351.4097
116	7881.5777
117	7106.98
118	7233.4223
119	7095.0542
120	7558.1732
121	7368.2028
122	7611.8752
123	7522.5329
124	7227.8392
125	7566.6971
126	7601.9503
127	7431.4818
128	7739.5971
129	7213.2327
130	7622.0678
131	7251.3849
132	7347.5016
133	7465.7778
134	6973.7091
135	6817.2756
136	6903.0963
137	6607.2224
138	6459.151
139	6825.6806
140	7500.5597
141	6635.4513
142	6862.4153
143	6809.8991
144	7337.0582
145	6844.9343
146	6928.5164
147	7396.428
148	7440.136
149	7306.1686
150	7431.6959
151	7181.3278
152	7020.0818
153	6802.1002
154	7141.8135
155	7083.1284
156	6491.0637
157	7339.9267
158	7005.0989
159	7313.5063
160	7449.7484
161	7300.8018
162	7167.922
163	7417.6608
164	6959.8056
165	6518.6466
166	6733.7008
167	6814.2677
168	6519.0284
169	6674.3172
170	6805.4269
171	6513.8361
172	6358.3499
173	6666.1884
174	6808.2867
175	6347.0767
176	6771.4904
177	6451.7492
178	6431.1687
179	6654.2459
180	6723.5248
181	6829.6615
182	6960.8916
183	7079.8252
184	6880.0299
185	7406.8135
186	7212.5041
187	6940.2454
188	7055.0532
189	7375.959
190	7336.6625
191	6633.7799
192	7249.3715
193	7470.312
194	6386.9172
195	6346.7983
196	6421.6048
197	6439.1585
198	5695.0888
199	6271.7297
200	5923.9503
