Position	Value
-200	5097.1381
-199	5546.1982
-198	5334.7794
-197	5625.4155
-196	5673.9401
-195	5644.0557
-194	5740.6715
-193	6276.7999
-192	6330.7238
-191	5883.4904
-190	6511.334
-189	6624.0332
-188	6212.328
-187	6214.661
-186	6341.9542
-185	6553.9102
-184	6142.8835
-183	6102.1227
-182	6105.255
-181	5910.362
-180	5921.6147
-179	6088.1648
-178	6007.0178
-177	5743.9898
-176	6193.7414
-175	5854.0582
-174	6028.0277
-173	5723.1307
-172	5811.0055
-171	5730.661
-170	5832.77
-169	6143.603
-168	5995.4819
-167	6039.6075
-166	6009.7968
-165	5862.4197
-164	6456.3515
-163	6723.0365
-162	6439.9719
-161	6661.9107
-160	6571.6054
-159	6457.8775
-158	6080.3084
-157	6573.174
-156	5780.3009
-155	6369.417
-154	6324.5519
-153	6316.7507
-152	6381.8295
-151	6743.3327
-150	6781.8531
-149	6398.0533
-148	6782.2849
-147	6457.5476
-146	6249.6687
-145	6019.6518
-144	6407.318
-143	5963.3739
-142	6111.3566
-141	5866.4638
-140	6426.9811
-139	5931.456
-138	5742.6767
-137	5928.0561
-136	6178.578
-135	6146.8909
-134	6169.5684
-133	6700.6536
-132	6742.8493
-131	6457.7838
-130	6879.2789
-129	6379.4895
-128	7013.8278
-127	6608.1219
-126	6693.2497
-125	6787.1378
-124	6474.6606
-123	6637.5584
-122	6759.0672
-121	6685.2261
-120	6833.0756
-119	6483.2044
-118	6444.8015
-117	6574.2733
-116	6918.4377
-115	6603.2447
-114	6056.9194
-113	5724.992
-112	6308.5474
-111	6143.9849
-110	5819.4655
-109	6206.3851
-108	5670.2733
-107	6011.6034
-106	6103.5257
-105	6947.5538
-104	6386.3408
-103	6606.5081
-102	6537.8492
-101	6909.0167
-100	7395.3314
-99	7670.4257
-98	7376.3562
-97	7499.1846
-96	8164.7587
-95	7518.0533
-94	8173.4862
-93	7756.2438
-92	8241.8769
-91	8023.3825
-90	7450.2966
-89	8062.536
-88	7761.1757
-87	7579.2216
-86	7162.9415
-85	7390.232
-84	7391.9602
-83	6797.6652
-82	7235.3679
-81	7200.9204
-80	6999.1831
-79	7185.8238
-78	7032.2718
-77	7537.8687
-76	6924.2324
-75	7325.217
-74	7523.6256
-73	7097.048
-72	7644.5948
-71	7822.1123
-70	7813.7272
-69	8317.808
-68	7910.2856
-67	8621.2042
-66	7903.9993
-65	8535.2995
-64	8437.9062
-63	8260.3739
-62	8699.4099
-61	8772.976
-60	8508.4131
-59	8546.333
-58	8279.7934
-57	8504.2383
-56	7594.8753
-55	7360.5567
-54	7548.9304
-53	7127.6525
-52	7380.5932
-51	6669.1869
-50	6812.3096
-49	6756.1195
-48	7198.0926
-47	6798.9087
-46	7091.6607
-45	7229.8273
-44	6680.4608
-43	6976.6788
-42	6823.3433
-41	6667.1161
-40	7160.3507
-39	7576.9058
-38	7819.8551
-37	7778.6816
-36	8764.9026
-35	8987.6539
-34	8660.4464
-33	9552.6284
-32	9466.3473
-31	9548.8414
-30	9626.9849
-29	9241.7606
-28	8227.4634
-27	8394.6376
-26	8159.2381
-25	8421.8487
-24	7879.1582
-23	8207.2397
-22	8382.6295
-21	8717.1566
-20	8731.0166
-19	8745.919
-18	9019.8419
-17	9081.8364
-16	9240.0129
-15	9788.387
-14	9348.0515
-13	10306.7515
-12	10801.6027
-11	11610.6396
-10	13128.2824
-9	13543.0022
-8	13594.4226
-7	15189.0681
-6	15642.8631
-5	16881.9142
-4	20065.4284
-3	20382.7098
-2	23342.803
-1	24459.2136
0	104412.1069
1	24459.2136
2	23342.803
3	20382.7098
4	20065.4284
5	16881.9142
6	15642.8631
7	15189.0681
8	13594.4226
9	13543.0022
10	13128.2824
11	11610.6396
12	10801.6027
13	10306.7515
14	9348.0515
15	9788.387
16	9240.0129
17	9081.8364
18	9019.8419
19	8745.919
20	8731.0166
21	8717.1566
22	8382.6295
23	8207.2397
24	7879.1582
25	8421.8487
26	8159.2381
27	8394.6376
28	8227.4634
29	9241.7606
30	9626.9849
31	9548.8414
32	9466.3473
33	9552.6284
34	8660.4464
35	8987.6539
36	8764.9026
37	7778.6816
38	7819.8551
39	7576.9058
40	7160.3507
41	6667.1161
42	6823.3433
43	6976.6788
44	6680.4608
45	7229.8273
46	7091.6607
47	6798.9087
48	7198.0926
49	6756.1195
50	6812.3096
51	6669.1869
52	7380.5932
53	7127.6525
54	7548.9304
55	7360.5567
56	7594.8753
57	8504.2383
58	8279.7934
59	8546.333
60	8508.4131
61	8772.976
62	8699.4099
63	8260.3739
64	8437.9062
65	8535.2995
66	7903.9993
67	8621.2042
68	7910.2856
69	8317.808
70	7813.7272
71	7822.1123
72	7644.5948
73	7097.048
74	7523.6256
75	7325.217
76	6924.2324
77	7537.8687
78	7032.2718
79	7185.8238
80	6999.1831
81	7200.9204
82	7235.3679
83	6797.6652
84	7391.9602
85	7390.232
86	7162.9415
87	7579.2216
88	7761.1757
89	8062.536
90	7450.2966
91	8023.3825
92	8241.8769
93	7756.2438
94	8173.4862
95	7518.0533
96	8164.7587
97	7499.1846
98	7376.3562
99	7670.4257
100	7395.3314
101	6909.0167
102	6537.8492
103	6606.5081
104	6386.3408
105	6947.5538
106	6103.5257
107	6011.6034
108	5670.2733
109	6206.3851
110	5819.4655
111	6143.9849
112	6308.5474
113	5724.992
114	6056.9194
115	6603.2447
116	6918.4377
117	6574.2733
118	6444.8015
119	6483.2044
120	6833.0756
121	6685.2261
122	6759.0672
123	6637.5584
124	6474.6606
125	6787.1378
126	6693.2497
127	6608.1219
128	7013.8278
129	6379.4895
130	6879.2789
131	6457.7838
132	6742.8493
133	6700.6536
134	6169.5684
135	6146.8909
136	6178.578
137	5928.0561
138	5742.6767
139	5931.456
140	6426.9811
141	5866.4638
142	6111.3566
143	5963.3739
144	6407.318
145	6019.6518
146	6249.6687
147	6457.5476
148	6782.2849
149	6398.0533
150	6781.8531
151	6743.3327
152	6381.8295
153	6316.7507
154	6324.5519
155	6369.417
156	5780.3009
157	6573.174
158	6080.3084
159	6457.8775
160	6571.6054
161	6661.9107
162	6439.9719
163	6723.0365
164	6456.3515
165	5862.4197
166	6009.7968
167	6039.6075
168	5995.4819
169	6143.603
170	5832.77
171	5730.661
172	5811.0055
173	5723.1307
174	6028.0277
175	5854.0582
176	6193.7414
177	5743.9898
178	6007.0178
179	6088.1648
180	5921.6147
181	5910.362
182	6105.255
183	6102.1227
184	6142.8835
185	6553.9102
186	6341.9542
187	6214.661
188	6212.328
189	6624.0332
190	6511.334
191	5883.4904
192	6330.7238
193	6276.7999
194	5740.6715
195	5644.0557
196	5673.9401
197	5625.4155
198	5334.7794
199	5546.1982
200	5097.1381
