Position	Value
-200	49.7715
-199	126.7024
-198	101.1927
-197	102.9893
-196	121.4914
-195	114.9985
-194	105.6
-193	108.4351
-192	131.4479
-191	115.9959
-190	118.9857
-189	112.5494
-188	126.7915
-187	140.6341
-186	112.1806
-185	106.5476
-184	132.9164
-183	118.5557
-182	95.8127
-181	112.7797
-180	121.2088
-179	113.4525
-178	98.0194
-177	95.2085
-176	94.3659
-175	111.6306
-174	110.66
-173	131.7555
-172	122.2102
-171	100.8369
-170	108.561
-169	146.8909
-168	113.5426
-167	120.2045
-166	126.4896
-165	118.9188
-164	128.5214
-163	149.8865
-162	134.8146
-161	113.6706
-160	153.014
-159	113.2466
-158	134.713
-157	154.0883
-156	129.1718
-155	144.2107
-154	124.0048
-153	158.1004
-152	158.421
-151	110.5591
-150	121.7855
-149	120.6482
-148	114.8396
-147	120.3173
-146	118.4608
-145	125.9668
-144	126.9141
-143	120.4057
-142	111.6926
-141	113.0676
-140	110.9178
-139	107.1327
-138	110.0917
-137	139.6718
-136	147.1742
-135	125.3618
-134	142.3994
-133	116.8755
-132	134.6359
-131	132.9781
-130	137.5869
-129	145.7454
-128	123.1392
-127	164.4287
-126	137.2906
-125	112.0789
-124	146.1944
-123	128.0643
-122	117.4684
-121	121.058
-120	104.9979
-119	121.3609
-118	103.6224
-117	125.0358
-116	128.6849
-115	116.9558
-114	105.518
-113	140.6005
-112	128.5811
-111	122.7169
-110	121.7167
-109	114.2477
-108	100.268
-107	146.3073
-106	136.84
-105	133.5168
-104	129.5315
-103	131.9156
-102	134.1073
-101	161.5613
-100	97.793
-99	150.1764
-98	167.2422
-97	154.1547
-96	117.9738
-95	121.8748
-94	102.1416
-93	142.1292
-92	117.389
-91	120.1568
-90	128.63
-89	102.8041
-88	147.4274
-87	117.2874
-86	113.2321
-85	98.4333
-84	103.3742
-83	92.4686
-82	103.1015
-81	124.329
-80	133.7805
-79	102.5264
-78	122.2244
-77	130.7608
-76	118.3563
-75	147.3048
-74	120.7167
-73	130.7069
-72	139.8978
-71	137.7767
-70	146.1894
-69	142.993
-68	142.3622
-67	151.2935
-66	177.2002
-65	158.5496
-64	147.0333
-63	158.1372
-62	177.71
-61	161.2864
-60	148.8285
-59	159.7551
-58	176.8314
-57	152.8128
-56	163.5764
-55	179.0865
-54	168.4276
-53	117.5194
-52	149.664
-51	161.0736
-50	132.3577
-49	136.0085
-48	149.5911
-47	133.2321
-46	115.6576
-45	166.301
-44	145.9521
-43	154.4646
-42	183.064
-41	142.0424
-40	134.0182
-39	150.4834
-38	160.1839
-37	182.4572
-36	210.3493
-35	215.8334
-34	284.7773
-33	228.2634
-32	193.5338
-31	208.2018
-30	226.9022
-29	193.8498
-28	196.9602
-27	199.7479
-26	219.3838
-25	171.2488
-24	190.6847
-23	168.4028
-22	136.713
-21	179.1398
-20	150.601
-19	178.1498
-18	193.2758
-17	169.7101
-16	192.3089
-15	173.0843
-14	207.9443
-13	196.1288
-12	249.9529
-11	250.4286
-10	272.7903
-9	299.249
-8	392.3066
-7	382.6374
-6	354.161
-5	501.2139
-4	603.0489
-3	744.805
-2	778.3067
-1	910.0513
0	12542.9227
1	910.0513
2	778.3067
3	744.805
4	603.0489
5	501.2139
6	354.161
7	382.6374
8	392.3066
9	299.249
10	272.7903
11	250.4286
12	249.9529
13	196.1288
14	207.9443
15	173.0843
16	192.3089
17	169.7101
18	193.2758
19	178.1498
20	150.601
21	179.1398
22	136.713
23	168.4028
24	190.6847
25	171.2488
26	219.3838
27	199.7479
28	196.9602
29	193.8498
30	226.9022
31	208.2018
32	193.5338
33	228.2634
34	284.7773
35	215.8334
36	210.3493
37	182.4572
38	160.1839
39	150.4834
40	134.0182
41	142.0424
42	183.064
43	154.4646
44	145.9521
45	166.301
46	115.6576
47	133.2321
48	149.5911
49	136.0085
50	132.3577
51	161.0736
52	149.664
53	117.5194
54	168.4276
55	179.0865
56	163.5764
57	152.8128
58	176.8314
59	159.7551
60	148.8285
61	161.2864
62	177.71
63	158.1372
64	147.0333
65	158.5496
66	177.2002
67	151.2935
68	142.3622
69	142.993
70	146.1894
71	137.7767
72	139.8978
73	130.7069
74	120.7167
75	147.3048
76	118.3563
77	130.7608
78	122.2244
79	102.5264
80	133.7805
81	124.329
82	103.1015
83	92.4686
84	103.3742
85	98.4333
86	113.2321
87	117.2874
88	147.4274
89	102.8041
90	128.63
91	120.1568
92	117.389
93	142.1292
94	102.1416
95	121.8748
96	117.9738
97	154.1547
98	167.2422
99	150.1764
100	97.793
101	161.5613
102	134.1073
103	131.9156
104	129.5315
105	133.5168
106	136.84
107	146.3073
108	100.268
109	114.2477
110	121.7167
111	122.7169
112	128.5811
113	140.6005
114	105.518
115	116.9558
116	128.6849
117	125.0358
118	103.6224
119	121.3609
120	104.9979
121	121.058
122	117.4684
123	128.0643
124	146.1944
125	112.0789
126	137.2906
127	164.4287
128	123.1392
129	145.7454
130	137.5869
131	132.9781
132	134.6359
133	116.8755
134	142.3994
135	125.3618
136	147.1742
137	139.6718
138	110.0917
139	107.1327
140	110.9178
141	113.0676
142	111.6926
143	120.4057
144	126.9141
145	125.9668
146	118.4608
147	120.3173
148	114.8396
149	120.6482
150	121.7855
151	110.5591
152	158.421
153	158.1004
154	124.0048
155	144.2107
156	129.1718
157	154.0883
158	134.713
159	113.2466
160	153.014
161	113.6706
162	134.8146
163	149.8865
164	128.5214
165	118.9188
166	126.4896
167	120.2045
168	113.5426
169	146.8909
170	108.561
171	100.8369
172	122.2102
173	131.7555
174	110.66
175	111.6306
176	94.3659
177	95.2085
178	98.0194
179	113.4525
180	121.2088
181	112.7797
182	95.8127
183	118.5557
184	132.9164
185	106.5476
186	112.1806
187	140.6341
188	126.7915
189	112.5494
190	118.9857
191	115.9959
192	131.4479
193	108.4351
194	105.6
195	114.9985
196	121.4914
197	102.9893
198	101.1927
199	126.7024
200	49.7715
