Position	Value
-200	33321.3775
-199	66482.6622
-198	66165.3112
-197	66696.1115
-196	66654.4509
-195	67303.2331
-194	67755.749
-193	67806.5204
-192	67231.7345
-191	67821.274
-190	67557.2854
-189	68180.5308
-188	67963.657
-187	67445.6653
-186	66512.4561
-185	67848.955
-184	68800.2739
-183	67874.697
-182	67167.1571
-181	68168.7933
-180	68078.6231
-179	67178.267
-178	66948.3394
-177	67952.5403
-176	68071.7253
-175	66945.8193
-174	68252.5294
-173	68765.8838
-172	68646.8516
-171	68364.5304
-170	68131.0543
-169	69172.3571
-168	68990.2882
-167	69723.7896
-166	69183.9848
-165	69562.5142
-164	68499.4308
-163	69582.7799
-162	69477.1175
-161	69404.9565
-160	69981.1883
-159	69432.0922
-158	69599.5921
-157	69083.2423
-156	70794.4218
-155	69390.8527
-154	69418.2478
-153	69990.9287
-152	70927.234
-151	69814.8234
-150	69950.6746
-149	70413.8324
-148	70385.0764
-147	70242.7881
-146	70785.7992
-145	71117.318
-144	71315.003
-143	71287.216
-142	70828.7416
-141	71336.0058
-140	71081.3827
-139	71904.7736
-138	71937.6856
-137	70666.0194
-136	72229.2393
-135	73124.8147
-134	72328.6861
-133	71643.2497
-132	72873.5052
-131	73005.8882
-130	74564.7464
-129	74060.9978
-128	73307.1864
-127	73112.2679
-126	74059.3237
-125	72143.1687
-124	72463.7123
-123	72950.1669
-122	73212.3801
-121	71865.8313
-120	73142.0241
-119	72477.5445
-118	73092.3042
-117	72584.327
-116	71368.7661
-115	73226.403
-114	73140.5742
-113	73084.8314
-112	72626.181
-111	73516.1797
-110	74107.8392
-109	73394.3656
-108	75501.5069
-107	74839.2289
-106	74539.2045
-105	75789.5804
-104	75038.5233
-103	74925.604
-102	75455.4368
-101	75807.8532
-100	75293.6641
-99	76299.6113
-98	77192.8762
-97	76157.4225
-96	77556.4794
-95	76886.1607
-94	76688.3717
-93	76234.563
-92	75773.5518
-91	75825.2617
-90	76068.0717
-89	76983.9686
-88	76520.6782
-87	77146.1592
-86	77303.847
-85	75033.1015
-84	77031.1259
-83	74648.5708
-82	76550.9761
-81	77163.045
-80	75894.8075
-79	77137.3427
-78	76989.6745
-77	77979.9886
-76	78286.1014
-75	79222.4276
-74	78778.1615
-73	78249.4938
-72	79090.4791
-71	80036.4126
-70	81904.6428
-69	82510.316
-68	82264.1895
-67	82744.087
-66	83935.3998
-65	83771.3958
-64	84389.9153
-63	85678.2252
-62	85083.7541
-61	84110.0298
-60	83949.4227
-59	84058.1463
-58	83778.8444
-57	82564.421
-56	81515.0909
-55	81748.1092
-54	80413.9393
-53	80536.526
-52	80794.4247
-51	81776.9204
-50	79506.1469
-49	80396.6371
-48	81431.3288
-47	80816.8206
-46	79080.9347
-45	80139.0457
-44	78571.5483
-43	80070.6607
-42	81917.7982
-41	80740.2559
-40	81101.9058
-39	81302.0377
-38	81921.5017
-37	82486.7015
-36	84537.685
-35	84814.2126
-34	86309.3131
-33	87377.2485
-32	89384.9713
-31	89315.2122
-30	90453.285
-29	87509.8839
-28	85003.1884
-27	81383.1059
-26	83300.1169
-25	82107.8605
-24	84024.6358
-23	85951.2737
-22	86693.701
-21	91907.1645
-20	92937.1332
-19	95367.1808
-18	96374.2557
-17	98117.5581
-16	98481.9676
-15	102067.2198
-14	103754.5918
-13	106720.3394
-12	111912.7129
-11	115281.5779
-10	113964.7289
-9	119923.3437
-8	121777.0048
-7	128240.9191
-6	130452.4656
-5	140438.2368
-4	153670.2712
-3	169451.0078
-2	160759.094
-1	174166.261
0	764531.9026
1	174166.261
2	160759.094
3	169451.0078
4	153670.2712
5	140438.2368
6	130452.4656
7	128240.9191
8	121777.0048
9	119923.3437
10	113964.7289
11	115281.5779
12	111912.7129
13	106720.3394
14	103754.5918
15	102067.2198
16	98481.9676
17	98117.5581
18	96374.2557
19	95367.1808
20	92937.1332
21	91907.1645
22	86693.701
23	85951.2737
24	84024.6358
25	82107.8605
26	83300.1169
27	81383.1059
28	85003.1884
29	87509.8839
30	90453.285
31	89315.2122
32	89384.9713
33	87377.2485
34	86309.3131
35	84814.2126
36	84537.685
37	82486.7015
38	81921.5017
39	81302.0377
40	81101.9058
41	80740.2559
42	81917.7982
43	80070.6607
44	78571.5483
45	80139.0457
46	79080.9347
47	80816.8206
48	81431.3288
49	80396.6371
50	79506.1469
51	81776.9204
52	80794.4247
53	80536.526
54	80413.9393
55	81748.1092
56	81515.0909
57	82564.421
58	83778.8444
59	84058.1463
60	83949.4227
61	84110.0298
62	85083.7541
63	85678.2252
64	84389.9153
65	83771.3958
66	83935.3998
67	82744.087
68	82264.1895
69	82510.316
70	81904.6428
71	80036.4126
72	79090.4791
73	78249.4938
74	78778.1615
75	79222.4276
76	78286.1014
77	77979.9886
78	76989.6745
79	77137.3427
80	75894.8075
81	77163.045
82	76550.9761
83	74648.5708
84	77031.1259
85	75033.1015
86	77303.847
87	77146.1592
88	76520.6782
89	76983.9686
90	76068.0717
91	75825.2617
92	75773.5518
93	76234.563
94	76688.3717
95	76886.1607
96	77556.4794
97	76157.4225
98	77192.8762
99	76299.6113
100	75293.6641
101	75807.8532
102	75455.4368
103	74925.604
104	75038.5233
105	75789.5804
106	74539.2045
107	74839.2289
108	75501.5069
109	73394.3656
110	74107.8392
111	73516.1797
112	72626.181
113	73084.8314
114	73140.5742
115	73226.403
116	71368.7661
117	72584.327
118	73092.3042
119	72477.5445
120	73142.0241
121	71865.8313
122	73212.3801
123	72950.1669
124	72463.7123
125	72143.1687
126	74059.3237
127	73112.2679
128	73307.1864
129	74060.9978
130	74564.7464
131	73005.8882
132	72873.5052
133	71643.2497
134	72328.6861
135	73124.8147
136	72229.2393
137	70666.0194
138	71937.6856
139	71904.7736
140	71081.3827
141	71336.0058
142	70828.7416
143	71287.216
144	71315.003
145	71117.318
146	70785.7992
147	70242.7881
148	70385.0764
149	70413.8324
150	69950.6746
151	69814.8234
152	70927.234
153	69990.9287
154	69418.2478
155	69390.8527
156	70794.4218
157	69083.2423
158	69599.5921
159	69432.0922
160	69981.1883
161	69404.9565
162	69477.1175
163	69582.7799
164	68499.4308
165	69562.5142
166	69183.9848
167	69723.7896
168	68990.2882
169	69172.3571
170	68131.0543
171	68364.5304
172	68646.8516
173	68765.8838
174	68252.5294
175	66945.8193
176	68071.7253
177	67952.5403
178	66948.3394
179	67178.267
180	68078.6231
181	68168.7933
182	67167.1571
183	67874.697
184	68800.2739
185	67848.955
186	66512.4561
187	67445.6653
188	67963.657
189	68180.5308
190	67557.2854
191	67821.274
192	67231.7345
193	67806.5204
194	67755.749
195	67303.2331
196	66654.4509
197	66696.1115
198	66165.3112
199	66482.6622
200	33321.3775
