Position	Value
-200	41965.5626
-199	83631.0183
-198	84250.6689
-197	83274.8232
-196	83559.3949
-195	85179.2612
-194	84804.9518
-193	84338.2812
-192	85142.0351
-191	84732.6313
-190	85688.9765
-189	84824.2625
-188	85824.5604
-187	84267.0454
-186	85904.2617
-185	85149.3649
-184	85815.3679
-183	85346.0118
-182	84847.9009
-181	86916.6968
-180	85146.7924
-179	84313.0062
-178	85212.578
-177	86651.9967
-176	84715.8174
-175	86221.1499
-174	86822.6368
-173	86166.0978
-172	87510.2454
-171	86532.5053
-170	86248.8984
-169	87939.7731
-168	87280.6043
-167	87368.5043
-166	88095.7753
-165	88050.9684
-164	87688.341
-163	88250.3086
-162	87845.1754
-161	88327.0792
-160	88891.0537
-159	88732.4985
-158	88640.7838
-157	88587.6213
-156	90083.2905
-155	88804.9597
-154	89322.4086
-153	89198.2908
-152	90146.3885
-151	89935.8816
-150	88294.7957
-149	88973.9627
-148	89162.3141
-147	89490.61
-146	89138.1368
-145	89420.8268
-144	89501.5447
-143	89914.4906
-142	90018.4674
-141	88452.3349
-140	90094.2561
-139	90961.1842
-138	89998.3576
-137	90056.4473
-136	91093.0716
-135	92245.3799
-134	91229.0398
-133	90623.5684
-132	93317.8384
-131	93132.4208
-130	92589.5238
-129	92952.3723
-128	92770.567
-127	93411.0214
-126	94691.377
-125	92907.8765
-124	92971.0136
-123	93958.3914
-122	93601.8211
-121	91666.5293
-120	93924.0006
-119	93068.3099
-118	92780.938
-117	92984.4136
-116	92236.6578
-115	92539.165
-114	93115.004
-113	93582.7362
-112	92319.3093
-111	93242.6509
-110	93764.0995
-109	93052.973
-108	93860.1131
-107	93883.5413
-106	92904.2673
-105	93942.0797
-104	94219.1505
-103	94138.3629
-102	94492.916
-101	94332.6399
-100	94699.9737
-99	95987.3015
-98	96050.258
-97	95794.0364
-96	95932.1899
-95	95966.6939
-94	96323.148
-93	96665.8277
-92	96253.9695
-91	96627.4107
-90	96316.9023
-89	95715.5991
-88	96293.3962
-87	96433.3529
-86	95506.2329
-85	94572.9537
-84	96011.251
-83	94603.9494
-82	95341.0053
-81	96603.3093
-80	96146.0482
-79	96096.5067
-78	96158.9525
-77	97276.5607
-76	96972.6077
-75	98094.9797
-74	96627.6006
-73	98378.3858
-72	98578.9083
-71	97706.6914
-70	100191.158
-69	101323.6378
-68	100522.202
-67	102018.9991
-66	103184.8695
-65	103619.4533
-64	103068.0041
-63	103671.5573
-62	104630.8261
-61	104492.8166
-60	102683.376
-59	103286.7614
-58	102894.3462
-57	100916.2141
-56	100506.0866
-55	101137.9112
-54	99703.661
-53	100158.2933
-52	100842.2496
-51	100870.0592
-50	99869.1449
-49	100136.0026
-48	101779.7458
-47	100855.9152
-46	99807.2777
-45	100154.84
-44	100990.3359
-43	100865.1476
-42	101574.9455
-41	101331.5903
-40	101646.6961
-39	102208.8687
-38	102464.4538
-37	103319.3928
-36	105519.9905
-35	106062.8748
-34	107312.8721
-33	109361.4639
-32	110295.9472
-31	109823.7041
-30	111574.3583
-29	112132.1348
-28	109871.3594
-27	105632.66
-26	103512.2674
-25	103665.6119
-24	104979.5318
-23	104571.2975
-22	106023.3041
-21	109147.0003
-20	108584.8415
-19	110334.3729
-18	110762.1222
-17	112780.8823
-16	112117.0219
-15	113269.7391
-14	114921.0761
-13	115760.4525
-12	119708.5583
-11	120517.6337
-10	119622.6271
-9	123524.9623
-8	124291.6713
-7	127037.6493
-6	127941.5972
-5	131954.0967
-4	142640.1544
-3	150514.3819
-2	129831.3537
-1	128355.2098
0	570054.9098
1	128355.2098
2	129831.3537
3	150514.3819
4	142640.1544
5	131954.0967
6	127941.5972
7	127037.6493
8	124291.6713
9	123524.9623
10	119622.6271
11	120517.6337
12	119708.5583
13	115760.4525
14	114921.0761
15	113269.7391
16	112117.0219
17	112780.8823
18	110762.1222
19	110334.3729
20	108584.8415
21	109147.0003
22	106023.3041
23	104571.2975
24	104979.5318
25	103665.6119
26	103512.2674
27	105632.66
28	109871.3594
29	112132.1348
30	111574.3583
31	109823.7041
32	110295.9472
33	109361.4639
34	107312.8721
35	106062.8748
36	105519.9905
37	103319.3928
38	102464.4538
39	102208.8687
40	101646.6961
41	101331.5903
42	101574.9455
43	100865.1476
44	100990.3359
45	100154.84
46	99807.2777
47	100855.9152
48	101779.7458
49	100136.0026
50	99869.1449
51	100870.0592
52	100842.2496
53	100158.2933
54	99703.661
55	101137.9112
56	100506.0866
57	100916.2141
58	102894.3462
59	103286.7614
60	102683.376
61	104492.8166
62	104630.8261
63	103671.5573
64	103068.0041
65	103619.4533
66	103184.8695
67	102018.9991
68	100522.202
69	101323.6378
70	100191.158
71	97706.6914
72	98578.9083
73	98378.3858
74	96627.6006
75	98094.9797
76	96972.6077
77	97276.5607
78	96158.9525
79	96096.5067
80	96146.0482
81	96603.3093
82	95341.0053
83	94603.9494
84	96011.251
85	94572.9537
86	95506.2329
87	96433.3529
88	96293.3962
89	95715.5991
90	96316.9023
91	96627.4107
92	96253.9695
93	96665.8277
94	96323.148
95	95966.6939
96	95932.1899
97	95794.0364
98	96050.258
99	95987.3015
100	94699.9737
101	94332.6399
102	94492.916
103	94138.3629
104	94219.1505
105	93942.0797
106	92904.2673
107	93883.5413
108	93860.1131
109	93052.973
110	93764.0995
111	93242.6509
112	92319.3093
113	93582.7362
114	93115.004
115	92539.165
116	92236.6578
117	92984.4136
118	92780.938
119	93068.3099
120	93924.0006
121	91666.5293
122	93601.8211
123	93958.3914
124	92971.0136
125	92907.8765
126	94691.377
127	93411.0214
128	92770.567
129	92952.3723
130	92589.5238
131	93132.4208
132	93317.8384
133	90623.5684
134	91229.0398
135	92245.3799
136	91093.0716
137	90056.4473
138	89998.3576
139	90961.1842
140	90094.2561
141	88452.3349
142	90018.4674
143	89914.4906
144	89501.5447
145	89420.8268
146	89138.1368
147	89490.61
148	89162.3141
149	88973.9627
150	88294.7957
151	89935.8816
152	90146.3885
153	89198.2908
154	89322.4086
155	88804.9597
156	90083.2905
157	88587.6213
158	88640.7838
159	88732.4985
160	88891.0537
161	88327.0792
162	87845.1754
163	88250.3086
164	87688.341
165	88050.9684
166	88095.7753
167	87368.5043
168	87280.6043
169	87939.7731
170	86248.8984
171	86532.5053
172	87510.2454
173	86166.0978
174	86822.6368
175	86221.1499
176	84715.8174
177	86651.9967
178	85212.578
179	84313.0062
180	85146.7924
181	86916.6968
182	84847.9009
183	85346.0118
184	85815.3679
185	85149.3649
186	85904.2617
187	84267.0454
188	85824.5604
189	84824.2625
190	85688.9765
191	84732.6313
192	85142.0351
193	84338.2812
194	84804.9518
195	85179.2612
196	83559.3949
197	83274.8232
198	84250.6689
199	83631.0183
200	41965.5626
