Position	Value
-200	8294.2757
-199	3887.1176
-198	4012.8257
-197	4218.9883
-196	4046.5899
-195	4000.1394
-194	4032.141
-193	3951.6915
-192	3959.3353
-191	4139.2711
-190	4193.1932
-189	4217.0229
-188	4195.4743
-187	4497.0285
-186	4334.1424
-185	3940.311
-184	3965.8279
-183	4170.409
-182	4114.6702
-181	4296.2492
-180	4313.0718
-179	4042.5549
-178	4339.9986
-177	4431.9798
-176	4399.6149
-175	4284.2097
-174	4438.6384
-173	4215.5974
-172	4376.5779
-171	4291.329
-170	4349.8014
-169	4629.8848
-168	4486.0258
-167	4577.8289
-166	4579.2472
-165	4746.8295
-164	4555.8746
-163	4486.3737
-162	4356.5804
-161	4364.6948
-160	4379.674
-159	4233.6403
-158	4428.616
-157	4383.2969
-156	4739.334
-155	4481.9582
-154	4459.2793
-153	4746.8959
-152	4742.0702
-151	4485.2968
-150	4412.6132
-149	4494.5973
-148	4317.4428
-147	4381.6034
-146	4506.7766
-145	4461.2489
-144	4545.6229
-143	4605.5674
-142	4636.3366
-141	4368.5489
-140	4582.821
-139	4773.8656
-138	4550.1531
-137	4681.6625
-136	4785.1028
-135	4835.618
-134	4765.4028
-133	4674.0968
-132	5087.0751
-131	4989.9344
-130	4878.0157
-129	5040.9744
-128	4804.0527
-127	4928.5737
-126	5081.7061
-125	5056.0576
-124	4913.5848
-123	5172.1395
-122	5179.2698
-121	5161.9234
-120	5072.3985
-119	4995.6847
-118	4943.2984
-117	4868.4277
-116	4755.9703
-115	4877.4202
-114	4966.353
-113	4947.7104
-112	4902.1806
-111	5070.2613
-110	5485.3799
-109	5089.8781
-108	5332.2521
-107	5248.6995
-106	5021.845
-105	5424.2477
-104	5038.7004
-103	5121.9168
-102	5547.7287
-101	5517.4877
-100	5384.0788
-99	5606.5273
-98	5565.1489
-97	5509.581
-96	5588.8069
-95	5692.3004
-94	6031.3402
-93	5526.9234
-92	5471.6561
-91	5369.5011
-90	5313.2012
-89	5505.4748
-88	5539.3144
-87	5256.2245
-86	5496.5899
-85	5000.5348
-84	5080.8582
-83	4803.1384
-82	4921.4026
-81	5032.7335
-80	4795.744
-79	4992.4923
-78	5348.8025
-77	5483.164
-76	5429.0924
-75	5595.8083
-74	5349.83
-73	5568.321
-72	5580.4543
-71	5760.1791
-70	6187.0513
-69	6505.4127
-68	6318.0879
-67	6848.0873
-66	6960.8863
-65	6769.7724
-64	6738.4186
-63	6855.3391
-62	6963.8258
-61	6656.266
-60	6476.2268
-59	6786.0241
-58	6772.9315
-57	6411.7972
-56	6230.1023
-55	6391.1599
-54	5912.6187
-53	5927.2807
-52	5742.7692
-51	5516.9315
-50	5208.1785
-49	5509.4833
-48	5575.5938
-47	5476.2385
-46	5633.3528
-45	5714.4636
-44	5664.982
-43	6019.1582
-42	6175.3236
-41	6103.5335
-40	6240.0808
-39	6397.3474
-38	6615.3041
-37	6768.058
-36	7519.2729
-35	7459.7642
-34	8031.1659
-33	8124.3768
-32	8259.7868
-31	7868.0702
-30	8550.5922
-29	8432.6778
-28	8156.9927
-27	6845.5353
-26	6570.1131
-25	6194.8239
-24	6056.6211
-23	5871.4911
-22	6196.4903
-21	6290.783
-20	6165.1948
-19	6188.7256
-18	6313.049
-17	6138.0366
-16	6117.9067
-15	6515.3402
-14	6695.8144
-13	6821.0842
-12	7414.418
-11	7713.8429
-10	7507.629
-9	8012.6062
-8	8264.7066
-7	8596.179
-6	8996.4145
-5	9846.6144
-4	11513.3849
-3	12928.1882
-2	12271.0179
-1	13864.7533
0	181980.0367
1	13864.7533
2	12271.0179
3	12928.1882
4	11513.3849
5	9846.6144
6	8996.4145
7	8596.179
8	8264.7066
9	8012.6062
10	7507.629
11	7713.8429
12	7414.418
13	6821.0842
14	6695.8144
15	6515.3402
16	6117.9067
17	6138.0366
18	6313.049
19	6188.7256
20	6165.1948
21	6290.783
22	6196.4903
23	5871.4911
24	6056.6211
25	6194.8239
26	6570.1131
27	6845.5353
28	8156.9927
29	8432.6778
30	8550.5922
31	7868.0702
32	8259.7868
33	8124.3768
34	8031.1659
35	7459.7642
36	7519.2729
37	6768.058
38	6615.3041
39	6397.3474
40	6240.0808
41	6103.5335
42	6175.3236
43	6019.1582
44	5664.982
45	5714.4636
46	5633.3528
47	5476.2385
48	5575.5938
49	5509.4833
50	5208.1785
51	5516.9315
52	5742.7692
53	5927.2807
54	5912.6187
55	6391.1599
56	6230.1023
57	6411.7972
58	6772.9315
59	6786.0241
60	6476.2268
61	6656.266
62	6963.8258
63	6855.3391
64	6738.4186
65	6769.7724
66	6960.8863
67	6848.0873
68	6318.0879
69	6505.4127
70	6187.0513
71	5760.1791
72	5580.4543
73	5568.321
74	5349.83
75	5595.8083
76	5429.0924
77	5483.164
78	5348.8025
79	4992.4923
80	4795.744
81	5032.7335
82	4921.4026
83	4803.1384
84	5080.8582
85	5000.5348
86	5496.5899
87	5256.2245
88	5539.3144
89	5505.4748
90	5313.2012
91	5369.5011
92	5471.6561
93	5526.9234
94	6031.3402
95	5692.3004
96	5588.8069
97	5509.581
98	5565.1489
99	5606.5273
100	5384.0788
101	5517.4877
102	5547.7287
103	5121.9168
104	5038.7004
105	5424.2477
106	5021.845
107	5248.6995
108	5332.2521
109	5089.8781
110	5485.3799
111	5070.2613
112	4902.1806
113	4947.7104
114	4966.353
115	4877.4202
116	4755.9703
117	4868.4277
118	4943.2984
119	4995.6847
120	5072.3985
121	5161.9234
122	5179.2698
123	5172.1395
124	4913.5848
125	5056.0576
126	5081.7061
127	4928.5737
128	4804.0527
129	5040.9744
130	4878.0157
131	4989.9344
132	5087.0751
133	4674.0968
134	4765.4028
135	4835.618
136	4785.1028
137	4681.6625
138	4550.1531
139	4773.8656
140	4582.821
141	4368.5489
142	4636.3366
143	4605.5674
144	4545.6229
145	4461.2489
146	4506.7766
147	4381.6034
148	4317.4428
149	4494.5973
150	4412.6132
151	4485.2968
152	4742.0702
153	4746.8959
154	4459.2793
155	4481.9582
156	4739.334
157	4383.2969
158	4428.616
159	4233.6403
160	4379.674
161	4364.6948
162	4356.5804
163	4486.3737
164	4555.8746
165	4746.8295
166	4579.2472
167	4577.8289
168	4486.0258
169	4629.8848
170	4349.8014
171	4291.329
172	4376.5779
173	4215.5974
174	4438.6384
175	4284.2097
176	4399.6149
177	4431.9798
178	4339.9986
179	4042.5549
180	4313.0718
181	4296.2492
182	4114.6702
183	4170.409
184	3965.8279
185	3940.311
186	4334.1424
187	4497.0285
188	4195.4743
189	4217.0229
190	4193.1932
191	4139.2711
192	3959.3353
193	3951.6915
194	4032.141
195	4000.1394
196	4046.5899
197	4218.9883
198	4012.8257
199	3887.1176
200	8294.2757
