Position	Value
-200	33.7303
-199	45.2335
-198	33.6543
-197	28.9372
-196	27.349
-195	20.5289
-194	23.4099
-193	36.3455
-192	33.2832
-191	41.6297
-190	29.6283
-189	29.5847
-188	39.1119
-187	24.158
-186	27.9269
-185	25.1084
-184	23.8904
-183	43.7623
-182	27.9079
-181	35.1598
-180	26.293
-179	39.4199
-178	35.5307
-177	38.5476
-176	36.1469
-175	32.0492
-174	35.1709
-173	32.4445
-172	37.8906
-171	37.6528
-170	35.1862
-169	38.759
-168	25.1361
-167	27.2299
-166	24.8205
-165	26.9491
-164	36.4786
-163	28.9173
-162	27.0958
-161	38.3461
-160	25.2277
-159	47.9458
-158	29.6346
-157	40.0337
-156	25.1764
-155	36.4913
-154	31.1487
-153	24.0295
-152	30.6984
-151	27.808
-150	31.6518
-149	31.4175
-148	35.5404
-147	38.8425
-146	39.1136
-145	25.851
-144	35.0297
-143	33.791
-142	26.6379
-141	37.2436
-140	23.9433
-139	38.7922
-138	35.6775
-137	38.744
-136	39.3397
-135	35.4641
-134	28.2263
-133	29.7943
-132	22.5345
-131	32.4616
-130	34.7473
-129	27.7523
-128	40.9978
-127	31.2909
-126	40.0456
-125	32.3239
-124	31.1313
-123	49.0849
-122	47.4808
-121	46.5301
-120	37.0741
-119	35.6383
-118	41.2771
-117	32.8678
-116	45.8605
-115	52.8126
-114	32.7261
-113	39.2816
-112	40.2163
-111	53.6134
-110	40.9746
-109	28.5786
-108	26.9731
-107	37.0968
-106	38.8474
-105	31.7952
-104	34.2311
-103	32.7198
-102	30.3275
-101	28.0649
-100	42.8935
-99	38.931
-98	33.6669
-97	42.5729
-96	38.4359
-95	37.488
-94	42.587
-93	28.301
-92	44.9392
-91	23.9289
-90	37.0872
-89	36.1645
-88	23.3609
-87	49.4626
-86	30.9915
-85	26.0745
-84	29.8684
-83	30.44
-82	31.6795
-81	22.7543
-80	27.3474
-79	38.2836
-78	25.7233
-77	35.3868
-76	30.391
-75	25.3962
-74	25.0698
-73	35.5784
-72	24.8519
-71	39.2163
-70	49.2995
-69	33.3284
-68	30.0923
-67	33.0059
-66	50.3522
-65	55.1004
-64	49.6443
-63	51.8022
-62	61.5315
-61	58.0037
-60	58.0924
-59	55.8533
-58	58.9309
-57	64.6339
-56	56.0876
-55	38.2665
-54	32.4135
-53	41.0595
-52	23.4733
-51	33.7001
-50	26.7254
-49	32.9296
-48	23.1324
-47	25.824
-46	24.2649
-45	34.4671
-44	42.8046
-43	36.0919
-42	21.271
-41	43.3337
-40	44.7781
-39	37.6569
-38	46.1481
-37	54.7508
-36	43.1367
-35	44.5079
-34	63.9624
-33	78.1427
-32	64.9383
-31	62.6826
-30	80.5634
-29	67.6733
-28	75.6496
-27	37.0489
-26	40.4314
-25	32.4202
-24	33.4492
-23	28.7956
-22	21.3784
-21	33.4501
-20	34.9398
-19	23.9716
-18	21.6585
-17	30.2421
-16	31.121
-15	27.5545
-14	43.149
-13	45.1271
-12	61.2723
-11	63.8203
-10	68.4903
-9	84.9338
-8	100.348
-7	175.094
-6	192.163
-5	272.746
-4	360.53
-3	463.752
-2	716.179
-1	916.204
0	19750.1
1	916.204
2	716.179
3	463.752
4	360.53
5	272.746
6	192.163
7	175.094
8	100.348
9	84.9338
10	68.4903
11	63.8203
12	61.2723
13	45.1271
14	43.149
15	27.5545
16	31.121
17	30.2421
18	21.6585
19	23.9716
20	34.9398
21	33.4501
22	21.3784
23	28.7956
24	33.4492
25	32.4202
26	40.4314
27	37.0489
28	75.6496
29	67.6733
30	80.5634
31	62.6826
32	64.9383
33	78.1427
34	63.9624
35	44.5079
36	43.1367
37	54.7508
38	46.1481
39	37.6569
40	44.7781
41	43.3337
42	21.271
43	36.0919
44	42.8046
45	34.4671
46	24.2649
47	25.824
48	23.1324
49	32.9296
50	26.7254
51	33.7001
52	23.4733
53	41.0595
54	32.4135
55	38.2665
56	56.0876
57	64.6339
58	58.9309
59	55.8533
60	58.0924
61	58.0037
62	61.5315
63	51.8022
64	49.6443
65	55.1004
66	50.3522
67	33.0059
68	30.0923
69	33.3284
70	49.2995
71	39.2163
72	24.8519
73	35.5784
74	25.0698
75	25.3962
76	30.391
77	35.3868
78	25.7233
79	38.2836
80	27.3474
81	22.7543
82	31.6795
83	30.44
84	29.8684
85	26.0745
86	30.9915
87	49.4626
88	23.3609
89	36.1645
90	37.0872
91	23.9289
92	44.9392
93	28.301
94	42.587
95	37.488
96	38.4359
97	42.5729
98	33.6669
99	38.931
100	42.8935
101	28.0649
102	30.3275
103	32.7198
104	34.2311
105	31.7952
106	38.8474
107	37.0968
108	26.9731
109	28.5786
110	40.9746
111	53.6134
112	40.2163
113	39.2816
114	32.7261
115	52.8126
116	45.8605
117	32.8678
118	41.2771
119	35.6383
120	37.0741
121	46.5301
122	47.4808
123	49.0849
124	31.1313
125	32.3239
126	40.0456
127	31.2909
128	40.9978
129	27.7523
130	34.7473
131	32.4616
132	22.5345
133	29.7943
134	28.2263
135	35.4641
136	39.3397
137	38.744
138	35.6775
139	38.7922
140	23.9433
141	37.2436
142	26.6379
143	33.791
144	35.0297
145	25.851
146	39.1136
147	38.8425
148	35.5404
149	31.4175
150	31.6518
151	27.808
152	30.6984
153	24.0295
154	31.1487
155	36.4913
156	25.1764
157	40.0337
158	29.6346
159	47.9458
160	25.2277
161	38.3461
162	27.0958
163	28.9173
164	36.4786
165	26.9491
166	24.8205
167	27.2299
168	25.1361
169	38.759
170	35.1862
171	37.6528
172	37.8906
173	32.4445
174	35.1709
175	32.0492
176	36.1469
177	38.5476
178	35.5307
179	39.4199
180	26.293
181	35.1598
182	27.9079
183	43.7623
184	23.8904
185	25.1084
186	27.9269
187	24.158
188	39.1119
189	29.5847
190	29.6283
191	41.6297
192	33.2832
193	36.3455
194	23.4099
195	20.5289
196	27.349
197	28.9372
198	33.6543
199	45.2335
200	33.7303
