Position	Value
-200	87425.0241
-199	87132.126
-198	86347.3895
-197	87249.5155
-196	86496.4783
-195	88313.6016
-194	88010.4383
-193	87981.0299
-192	89077.6886
-191	89311.9977
-190	87804.2361
-189	87386.9553
-188	88143.6684
-187	88919.4778
-186	88750.1225
-185	88642.1081
-184	90300.271
-183	88902.2164
-182	87376.0394
-181	90141.5222
-180	88785.1432
-179	87508.3562
-178	88595.8578
-177	88802.8023
-176	88444.6318
-175	87586.4627
-174	89941.7759
-173	88706.2723
-172	90411.6327
-171	89463.636
-170	87712.3252
-169	90539.217
-168	89797.7995
-167	90137.3529
-166	89923.5108
-165	91404.0762
-164	90374.8626
-163	90305.8045
-162	91680.0355
-161	89536.0821
-160	91030.1112
-159	92171.0349
-158	90814.3989
-157	90394.5803
-156	92756.1282
-155	89799.0866
-154	91175.1202
-153	91569.8126
-152	92114.6983
-151	91158.0689
-150	91070.7812
-149	91160.5641
-148	89676.6987
-147	91310.8684
-146	89197.9698
-145	91615.2842
-144	91986.0083
-143	90681.0499
-142	91685.9022
-141	90295.7194
-140	91525.5872
-139	93322.3744
-138	92793.9111
-137	93461.679
-136	94114.823
-135	94999.5987
-134	93537.8839
-133	92975.0766
-132	95513.4295
-131	94760.1044
-130	96938.9771
-129	96367.1345
-128	95242.764
-127	97023.5487
-126	97265.7616
-125	95026.5303
-124	96346.3605
-123	96659.0871
-122	94684.188
-121	94510.1263
-120	96105.0029
-119	93866.6246
-118	93925.0036
-117	94220.5874
-116	92350.8126
-115	94093.2858
-114	95168.5332
-113	95399.8995
-112	93700.3028
-111	94583.539
-110	95952.7774
-109	94067.4613
-108	95570.3006
-107	95897.9432
-106	95255.3533
-105	97210.1641
-104	95922.7292
-103	95303.7931
-102	98603.3246
-101	97970.7185
-100	97394.492
-99	100815.3992
-98	100350.3196
-97	99313.4154
-96	101130.4567
-95	100285.2162
-94	101398.4009
-93	101059.7698
-92	100187.0335
-91	100503.7855
-90	99188.1162
-89	99767.8905
-88	97295.2992
-87	99437.0059
-86	98981.1964
-85	96367.0519
-84	98672.8063
-83	96562.2391
-82	97329.4164
-81	98202.8453
-80	96888.9307
-79	99133.6239
-78	97403.4007
-77	99514.828
-76	99916.5905
-75	101168.3886
-74	99703.3046
-73	101091.1484
-72	101332.9332
-71	102225.4129
-70	104027.1831
-69	105892.2396
-68	105922.8658
-67	107310.162
-66	109407.8751
-65	110379.3226
-64	110378.2117
-63	110806.8809
-62	110835.0473
-61	111700.018
-60	109316.9923
-59	109724.4056
-58	109094.5581
-57	107867.9223
-56	104391.7789
-55	105890.0136
-54	104581.8932
-53	103009.3289
-52	105744.1069
-51	104036.801
-50	102175.7978
-49	103390.2404
-48	105923.6345
-47	103846.0549
-46	103249.357
-45	103374.6825
-44	103326.0153
-43	104494.6715
-42	106555.3236
-41	105723.1374
-40	106777.925
-39	108739.7486
-38	109399.1525
-37	110696.6505
-36	113707.3275
-35	114907.7546
-34	117190.1058
-33	119635.8016
-32	121427.3424
-31	122264.5542
-30	124733.8624
-29	120624.1746
-28	116789.5158
-27	112452.7406
-26	110616.3606
-25	110772.0569
-24	111341.9538
-23	111467.631
-22	113556.9367
-21	117837.1363
-20	118656.211
-19	118770.3138
-18	122957.9569
-17	123707.7558
-16	123735.7503
-15	126204.5881
-14	126632.0211
-13	130469.9294
-12	137810.1401
-11	140155.1319
-10	139504.2647
-9	147630.0257
-8	148964.0798
-7	152448.0853
-6	155789.1779
-5	164736.708
-4	173727.067
-3	189469.1659
-2	168416.5921
-1	146580.446
0	888419.8477
1	146580.446
2	168416.5921
3	189469.1659
4	173727.067
5	164736.708
6	155789.1779
7	152448.0853
8	148964.0798
9	147630.0257
10	139504.2647
11	140155.1319
12	137810.1401
13	130469.9294
14	126632.0211
15	126204.5881
16	123735.7503
17	123707.7558
18	122957.9569
19	118770.3138
20	118656.211
21	117837.1363
22	113556.9367
23	111467.631
24	111341.9538
25	110772.0569
26	110616.3606
27	112452.7406
28	116789.5158
29	120624.1746
30	124733.8624
31	122264.5542
32	121427.3424
33	119635.8016
34	117190.1058
35	114907.7546
36	113707.3275
37	110696.6505
38	109399.1525
39	108739.7486
40	106777.925
41	105723.1374
42	106555.3236
43	104494.6715
44	103326.0153
45	103374.6825
46	103249.357
47	103846.0549
48	105923.6345
49	103390.2404
50	102175.7978
51	104036.801
52	105744.1069
53	103009.3289
54	104581.8932
55	105890.0136
56	104391.7789
57	107867.9223
58	109094.5581
59	109724.4056
60	109316.9923
61	111700.018
62	110835.0473
63	110806.8809
64	110378.2117
65	110379.3226
66	109407.8751
67	107310.162
68	105922.8658
69	105892.2396
70	104027.1831
71	102225.4129
72	101332.9332
73	101091.1484
74	99703.3046
75	101168.3886
76	99916.5905
77	99514.828
78	97403.4007
79	99133.6239
80	96888.9307
81	98202.8453
82	97329.4164
83	96562.2391
84	98672.8063
85	96367.0519
86	98981.1964
87	99437.0059
88	97295.2992
89	99767.8905
90	99188.1162
91	100503.7855
92	100187.0335
93	101059.7698
94	101398.4009
95	100285.2162
96	101130.4567
97	99313.4154
98	100350.3196
99	100815.3992
100	97394.492
101	97970.7185
102	98603.3246
103	95303.7931
104	95922.7292
105	97210.1641
106	95255.3533
107	95897.9432
108	95570.3006
109	94067.4613
110	95952.7774
111	94583.539
112	93700.3028
113	95399.8995
114	95168.5332
115	94093.2858
116	92350.8126
117	94220.5874
118	93925.0036
119	93866.6246
120	96105.0029
121	94510.1263
122	94684.188
123	96659.0871
124	96346.3605
125	95026.5303
126	97265.7616
127	97023.5487
128	95242.764
129	96367.1345
130	96938.9771
131	94760.1044
132	95513.4295
133	92975.0766
134	93537.8839
135	94999.5987
136	94114.823
137	93461.679
138	92793.9111
139	93322.3744
140	91525.5872
141	90295.7194
142	91685.9022
143	90681.0499
144	91986.0083
145	91615.2842
146	89197.9698
147	91310.8684
148	89676.6987
149	91160.5641
150	91070.7812
151	91158.0689
152	92114.6983
153	91569.8126
154	91175.1202
155	89799.0866
156	92756.1282
157	90394.5803
158	90814.3989
159	92171.0349
160	91030.1112
161	89536.0821
162	91680.0355
163	90305.8045
164	90374.8626
165	91404.0762
166	89923.5108
167	90137.3529
168	89797.7995
169	90539.217
170	87712.3252
171	89463.636
172	90411.6327
173	88706.2723
174	89941.7759
175	87586.4627
176	88444.6318
177	88802.8023
178	88595.8578
179	87508.3562
180	88785.1432
181	90141.5222
182	87376.0394
183	88902.2164
184	90300.271
185	88642.1081
186	88750.1225
187	88919.4778
188	88143.6684
189	87386.9553
190	87804.2361
191	89311.9977
192	89077.6886
193	87981.0299
194	88010.4383
195	88313.6016
196	86496.4783
197	87249.5155
198	86347.3895
199	87132.126
200	87425.0241
