Position	Value
-200	3178.1199
-199	6381.8341
-198	6514.1433
-197	6384.4255
-196	6668.5763
-195	6586.5628
-194	6524.8928
-193	6388.202
-192	6649.796
-191	6455.668
-190	6499.6976
-189	6496.9665
-188	6844.6622
-187	6862.2221
-186	6625.1474
-185	6796.8272
-184	7005.144
-183	6802.7106
-182	6462.6058
-181	6891.3315
-180	6791.0849
-179	6401.2103
-178	6378.4219
-177	6656.3756
-176	6373.1901
-175	6436.8353
-174	6516.4437
-173	6635.0901
-172	6649.2872
-171	6371.4234
-170	6184.7143
-169	6638.1891
-168	6285.0163
-167	6698.1726
-166	6587.7962
-165	6579.832
-164	6556.7329
-163	6693.3035
-162	6682.5881
-161	6557.1989
-160	6523.0551
-159	6511.5963
-158	6720.2973
-157	6671.8604
-156	6655.2077
-155	6986.4198
-154	6756.5703
-153	6855.0465
-152	7158.3219
-151	7209.2624
-150	6960.4182
-149	6910.6224
-148	6795.0953
-147	6794.6703
-146	7020.1071
-145	7065.6421
-144	7147.3244
-143	6974.3734
-142	7122.6238
-141	7215.2476
-140	7145.5793
-139	7105.7491
-138	7037.7547
-137	7226.1121
-136	7078.9285
-135	7252.8447
-134	7314.0489
-133	7218.0239
-132	7584.8397
-131	7451.1549
-130	7359.2881
-129	7504.148
-128	7492.4543
-127	7511.8439
-126	7602.6844
-125	7374.465
-124	7298.606
-123	7547.3754
-122	7301.3379
-121	7095.2843
-120	7109.0063
-119	7076.3283
-118	6793.5434
-117	7119.188
-116	7040.9007
-115	7088.7217
-114	6916.5793
-113	7219.1838
-112	6781.0569
-111	7211.6861
-110	7010.5196
-109	7031.2163
-108	6950.9185
-107	7077.1657
-106	7080.5835
-105	7223.4462
-104	7016.2186
-103	7283.5918
-102	7433.8366
-101	7276.1672
-100	7034.7758
-99	7592.4818
-98	7392.0516
-97	7443.8792
-96	7416.0889
-95	7594.5106
-94	7403.966
-93	7604.7554
-92	7506.5882
-91	7568.3317
-90	7468.4809
-89	7656.4917
-88	7927.0988
-87	7481.2812
-86	7334.5913
-85	7166.019
-84	7358.8884
-83	7318.5213
-82	7061.6485
-81	7197.1729
-80	7346.1031
-79	7298.847
-78	7264.3089
-77	7267.2391
-76	7522.9005
-75	7498.1701
-74	7719.8785
-73	7622.7247
-72	7775.142
-71	7829.0594
-70	7980.3308
-69	8297.744
-68	7899.1899
-67	8016.9607
-66	8079.7662
-65	8046.732
-64	8087.329
-63	8351.1304
-62	8440.8048
-61	8475.9213
-60	8116.4622
-59	8324.4226
-58	8339.0722
-57	8237.911
-56	8170.0468
-55	8531.8133
-54	8116.9599
-53	7912.4097
-52	8532.7225
-51	8214.7022
-50	8571.6278
-49	8534.1102
-48	8287.6238
-47	8683.3841
-46	8151.0155
-45	8540.5707
-44	8222.7813
-43	8573.3779
-42	8649.6547
-41	8500.7547
-40	8375.4086
-39	8363.3075
-38	8356.6251
-37	8798.0501
-36	8704.8456
-35	9016.321
-34	9295.2195
-33	9262.2043
-32	9499.1791
-31	9442.4743
-30	9771.9782
-29	9858.1529
-28	9507.4005
-27	8979.6413
-26	8417.9929
-25	8329.948
-24	8845.1156
-23	9103.2057
-22	9371.0338
-21	9772.8428
-20	9767.93
-19	10145.2254
-18	10718.113
-17	10801.0725
-16	10994.9041
-15	11508.5562
-14	11879.258
-13	12867.5897
-12	13806.3031
-11	14624.0361
-10	15987.3905
-9	17217.6091
-8	19443.4599
-7	21763.4694
-6	24222.862
-5	28540.8788
-4	33735.9924
-3	41596.1413
-2	45611.7906
-1	51919.4208
0	220309.7814
1	51919.4208
2	45611.7906
3	41596.1413
4	33735.9924
5	28540.8788
6	24222.862
7	21763.4694
8	19443.4599
9	17217.6091
10	15987.3905
11	14624.0361
12	13806.3031
13	12867.5897
14	11879.258
15	11508.5562
16	10994.9041
17	10801.0725
18	10718.113
19	10145.2254
20	9767.93
21	9772.8428
22	9371.0338
23	9103.2057
24	8845.1156
25	8329.948
26	8417.9929
27	8979.6413
28	9507.4005
29	9858.1529
30	9771.9782
31	9442.4743
32	9499.1791
33	9262.2043
34	9295.2195
35	9016.321
36	8704.8456
37	8798.0501
38	8356.6251
39	8363.3075
40	8375.4086
41	8500.7547
42	8649.6547
43	8573.3779
44	8222.7813
45	8540.5707
46	8151.0155
47	8683.3841
48	8287.6238
49	8534.1102
50	8571.6278
51	8214.7022
52	8532.7225
53	7912.4097
54	8116.9599
55	8531.8133
56	8170.0468
57	8237.911
58	8339.0722
59	8324.4226
60	8116.4622
61	8475.9213
62	8440.8048
63	8351.1304
64	8087.329
65	8046.732
66	8079.7662
67	8016.9607
68	7899.1899
69	8297.744
70	7980.3308
71	7829.0594
72	7775.142
73	7622.7247
74	7719.8785
75	7498.1701
76	7522.9005
77	7267.2391
78	7264.3089
79	7298.847
80	7346.1031
81	7197.1729
82	7061.6485
83	7318.5213
84	7358.8884
85	7166.019
86	7334.5913
87	7481.2812
88	7927.0988
89	7656.4917
90	7468.4809
91	7568.3317
92	7506.5882
93	7604.7554
94	7403.966
95	7594.5106
96	7416.0889
97	7443.8792
98	7392.0516
99	7592.4818
100	7034.7758
101	7276.1672
102	7433.8366
103	7283.5918
104	7016.2186
105	7223.4462
106	7080.5835
107	7077.1657
108	6950.9185
109	7031.2163
110	7010.5196
111	7211.6861
112	6781.0569
113	7219.1838
114	6916.5793
115	7088.7217
116	7040.9007
117	7119.188
118	6793.5434
119	7076.3283
120	7109.0063
121	7095.2843
122	7301.3379
123	7547.3754
124	7298.606
125	7374.465
126	7602.6844
127	7511.8439
128	7492.4543
129	7504.148
130	7359.2881
131	7451.1549
132	7584.8397
133	7218.0239
134	7314.0489
135	7252.8447
136	7078.9285
137	7226.1121
138	7037.7547
139	7105.7491
140	7145.5793
141	7215.2476
142	7122.6238
143	6974.3734
144	7147.3244
145	7065.6421
146	7020.1071
147	6794.6703
148	6795.0953
149	6910.6224
150	6960.4182
151	7209.2624
152	7158.3219
153	6855.0465
154	6756.5703
155	6986.4198
156	6655.2077
157	6671.8604
158	6720.2973
159	6511.5963
160	6523.0551
161	6557.1989
162	6682.5881
163	6693.3035
164	6556.7329
165	6579.832
166	6587.7962
167	6698.1726
168	6285.0163
169	6638.1891
170	6184.7143
171	6371.4234
172	6649.2872
173	6635.0901
174	6516.4437
175	6436.8353
176	6373.1901
177	6656.3756
178	6378.4219
179	6401.2103
180	6791.0849
181	6891.3315
182	6462.6058
183	6802.7106
184	7005.144
185	6796.8272
186	6625.1474
187	6862.2221
188	6844.6622
189	6496.9665
190	6499.6976
191	6455.668
192	6649.796
193	6388.202
194	6524.8928
195	6586.5628
196	6668.5763
197	6384.4255
198	6514.1433
199	6381.8341
200	3178.1199
