Position	Value
-200	4162.0955
-199	4408.5144
-198	4867.0778
-197	4389.3905
-196	4468.7447
-195	5010.2784
-194	4672.4503
-193	4816.5
-192	4780.9273
-191	4811.762
-190	4756.9229
-189	5482.0335
-188	5060.1283
-187	5092.8401
-186	5863.1372
-185	4782.6935
-184	4806.9081
-183	4881.5843
-182	4809.5083
-181	5019.818
-180	5521.3336
-179	4502.2033
-178	5022.4217
-177	5761.9531
-176	5079.0548
-175	5112.0648
-174	5370.5358
-173	4584.4127
-172	4997.311
-171	5326.3968
-170	4484.3906
-169	4494.9808
-168	5226.5084
-167	4856.8822
-166	4927.2924
-165	5660.1667
-164	4678.7086
-163	4656.5338
-162	5147.7435
-161	4523.4164
-160	4989.1551
-159	5688.5626
-158	4581.4075
-157	4721.6941
-156	5635.486
-155	5181.7995
-154	4845.9775
-153	5057.0247
-152	4945.9723
-151	4563.4646
-150	4808.5374
-149	4814.9486
-148	4924.5421
-147	5442.0069
-146	4828.6383
-145	4262.4589
-144	5260.8576
-143	5026.6168
-142	4782.5313
-141	4931.2097
-140	4532.2892
-139	4694.6463
-138	5161.0069
-137	4695.7458
-136	4525.2898
-135	5584.8673
-134	4807.632
-133	4687.7097
-132	5297.2295
-131	4753.8009
-130	5211.9089
-129	5559.9338
-128	4588.5441
-127	4780.5598
-126	5358.3996
-125	4997.2486
-124	4975.6311
-123	4897.0451
-122	4786.9565
-121	4952.8313
-120	5629.9386
-119	5026.7556
-118	4862.7553
-117	5550.2834
-116	5149.7088
-115	5000.6416
-114	5310.8889
-113	4714.7702
-112	4977.2331
-111	5330.3386
-110	4637.1645
-109	5038.7538
-108	5722.708
-107	5185.342
-106	4554.612
-105	4971.5551
-104	4956.6601
-103	4642.5358
-102	5693.47
-101	5062.9979
-100	4921.3309
-99	5905.1636
-98	5180.6792
-97	5174.792
-96	5828.8057
-95	5400.449
-94	4875.9286
-93	5430.3794
-92	4799.4317
-91	5291.3038
-90	5635.19
-89	5046.9099
-88	5229.5453
-87	5725.6566
-86	4756.9
-85	4810.0855
-84	5835.0014
-83	4995.3071
-82	4842.6267
-81	5810.179
-80	5225.7644
-79	5113.9726
-78	5988.9999
-77	5239.2167
-76	5234.3981
-75	5658.4627
-74	4941.0119
-73	4806.8669
-72	5419.9335
-71	4717.3902
-70	5201.5176
-69	6180.2238
-68	5880.2365
-67	5738.2567
-66	6163.0514
-65	5530.565
-64	5337.6776
-63	6316.7869
-62	5639.2168
-61	5376.1373
-60	6404.9136
-59	5279.2184
-58	5103.3651
-57	5933.495
-56	5684.6412
-55	5685.302
-54	6229.7498
-53	5524.6384
-52	5378.9658
-51	6309.7914
-50	5355.3418
-49	5176.6683
-48	6117.4844
-47	5579.0288
-46	5462.5782
-45	6102.9225
-44	5268.1177
-43	5259.78
-42	6095.0255
-41	5268.2398
-40	5556.2378
-39	5903.4647
-38	5650.9109
-37	5836.7078
-36	6474.3444
-35	5608.2318
-34	5809.3845
-33	6351.328
-32	5929.7114
-31	5708.0045
-30	6678.9785
-29	6000.5019
-28	5772.5849
-27	6235.3057
-26	5154.5173
-25	5439.1836
-24	5669.8876
-23	4650.3005
-22	4917.5707
-21	5473.9106
-20	4830.2436
-19	5097.8439
-18	6150.0596
-17	5726.1633
-16	5722.4542
-15	6786.0732
-14	6432.9408
-13	6969.2347
-12	7691.3586
-11	7208.3918
-10	7621.1793
-9	8813.8439
-8	7796.9894
-7	8719.7787
-6	10504.1644
-5	10587.7197
-4	11801.3518
-3	14910.7715
-2	15748.2193
-1	27247.2357
0	174610.9041
1	27247.2357
2	15748.2193
3	14910.7715
4	11801.3518
5	10587.7197
6	10504.1644
7	8719.7787
8	7796.9894
9	8813.8439
10	7621.1793
11	7208.3918
12	7691.3586
13	6969.2347
14	6432.9408
15	6786.0732
16	5722.4542
17	5726.1633
18	6150.0596
19	5097.8439
20	4830.2436
21	5473.9106
22	4917.5707
23	4650.3005
24	5669.8876
25	5439.1836
26	5154.5173
27	6235.3057
28	5772.5849
29	6000.5019
30	6678.9785
31	5708.0045
32	5929.7114
33	6351.328
34	5809.3845
35	5608.2318
36	6474.3444
37	5836.7078
38	5650.9109
39	5903.4647
40	5556.2378
41	5268.2398
42	6095.0255
43	5259.78
44	5268.1177
45	6102.9225
46	5462.5782
47	5579.0288
48	6117.4844
49	5176.6683
50	5355.3418
51	6309.7914
52	5378.9658
53	5524.6384
54	6229.7498
55	5685.302
56	5684.6412
57	5933.495
58	5103.3651
59	5279.2184
60	6404.9136
61	5376.1373
62	5639.2168
63	6316.7869
64	5337.6776
65	5530.565
66	6163.0514
67	5738.2567
68	5880.2365
69	6180.2238
70	5201.5176
71	4717.3902
72	5419.9335
73	4806.8669
74	4941.0119
75	5658.4627
76	5234.3981
77	5239.2167
78	5988.9999
79	5113.9726
80	5225.7644
81	5810.179
82	4842.6267
83	4995.3071
84	5835.0014
85	4810.0855
86	4756.9
87	5725.6566
88	5229.5453
89	5046.9099
90	5635.19
91	5291.3038
92	4799.4317
93	5430.3794
94	4875.9286
95	5400.449
96	5828.8057
97	5174.792
98	5180.6792
99	5905.1636
100	4921.3309
101	5062.9979
102	5693.47
103	4642.5358
104	4956.6601
105	4971.5551
106	4554.612
107	5185.342
108	5722.708
109	5038.7538
110	4637.1645
111	5330.3386
112	4977.2331
113	4714.7702
114	5310.8889
115	5000.6416
116	5149.7088
117	5550.2834
118	4862.7553
119	5026.7556
120	5629.9386
121	4952.8313
122	4786.9565
123	4897.0451
124	4975.6311
125	4997.2486
126	5358.3996
127	4780.5598
128	4588.5441
129	5559.9338
130	5211.9089
131	4753.8009
132	5297.2295
133	4687.7097
134	4807.632
135	5584.8673
136	4525.2898
137	4695.7458
138	5161.0069
139	4694.6463
140	4532.2892
141	4931.2097
142	4782.5313
143	5026.6168
144	5260.8576
145	4262.4589
146	4828.6383
147	5442.0069
148	4924.5421
149	4814.9486
150	4808.5374
151	4563.4646
152	4945.9723
153	5057.0247
154	4845.9775
155	5181.7995
156	5635.486
157	4721.6941
158	4581.4075
159	5688.5626
160	4989.1551
161	4523.4164
162	5147.7435
163	4656.5338
164	4678.7086
165	5660.1667
166	4927.2924
167	4856.8822
168	5226.5084
169	4494.9808
170	4484.3906
171	5326.3968
172	4997.311
173	4584.4127
174	5370.5358
175	5112.0648
176	5079.0548
177	5761.9531
178	5022.4217
179	4502.2033
180	5521.3336
181	5019.818
182	4809.5083
183	4881.5843
184	4806.9081
185	4782.6935
186	5863.1372
187	5092.8401
188	5060.1283
189	5482.0335
190	4756.9229
191	4811.762
192	4780.9273
193	4816.5
194	4672.4503
195	5010.2784
196	4468.7447
197	4389.3905
198	4867.0778
199	4408.5144
200	4162.0955
