Position	Value
-200	5438.8024
-199	11349.2091
-198	11640.0489
-197	11515.4881
-196	11586.9207
-195	12073.5427
-194	12248.7797
-193	12127.6659
-192	12131.9287
-191	11672.3814
-190	11357.048
-189	11699.7955
-188	11495.9117
-187	11271.9161
-186	11742.7655
-185	11273.5073
-184	11518.829
-183	11794.1855
-182	11176.7717
-181	11631.4812
-180	11263.97
-179	11090.3973
-178	10980.2498
-177	11095.6479
-176	11512.2908
-175	11279.2475
-174	11474.9803
-173	11675.8725
-172	11533.2721
-171	11705.0409
-170	11664.93
-169	11655.0811
-168	11522.874
-167	11895.998
-166	11954.9743
-165	11895.4403
-164	12280.9153
-163	11961.4355
-162	11818.3635
-161	11622.4335
-160	11616.0565
-159	11719.5461
-158	11882.2292
-157	12020.0769
-156	12162.8147
-155	11758.4342
-154	12099.671
-153	12170.0739
-152	12009.0925
-151	11856.3109
-150	11846.3672
-149	11875.2893
-148	11484.09
-147	12119.0936
-146	11653.8752
-145	11728.6447
-144	12244.2677
-143	12138.654
-142	11378.2484
-141	11860.6888
-140	11496.2091
-139	11912.1304
-138	11816.518
-137	12206.5302
-136	11928.1188
-135	11980.8828
-134	11405.6709
-133	11857.9225
-132	12402.6034
-131	11915.9567
-130	12434.0058
-129	12352.4861
-128	12049.9529
-127	12346.9358
-126	11941.9719
-125	12125.8051
-124	11863.524
-123	12676.9831
-122	12093.894
-121	11916.8845
-120	12190.6698
-119	12006.0389
-118	11842.0783
-117	12258.8906
-116	12187.2144
-115	12402.8916
-114	12809.4832
-113	12599.207
-112	12304.8781
-111	12945.6068
-110	12569.2396
-109	12813.1474
-108	13322.3221
-107	13140.6637
-106	13122.7118
-105	12978.1435
-104	12734.7276
-103	13176.1737
-102	13117.4011
-101	12991.6924
-100	13345.3505
-99	13770.6398
-98	13534.5186
-97	13083.513
-96	13708.3031
-95	13842.7205
-94	13128.2904
-93	13314.3428
-92	12696.8721
-91	12738.8894
-90	12953.3561
-89	13107.3302
-88	13252.8354
-87	13714.6077
-86	13737.0285
-85	13322.6204
-84	14156.9925
-83	13823.5208
-82	13809.3144
-81	14326.5006
-80	14228.783
-79	14308.123
-78	14866.4471
-77	14608.6363
-76	15413.6934
-75	15538.5619
-74	15688.7658
-73	15570.4034
-72	15718.1208
-71	15408.2097
-70	15624.1531
-69	16393.5684
-68	15856.3878
-67	15920.6032
-66	16501.7369
-65	16418.2812
-64	16626.7222
-63	17218.4334
-62	17184.0079
-61	17277.1063
-60	17184.8414
-59	17204.0686
-58	17745.7503
-57	17609.4484
-56	17299.2125
-55	17296.7765
-54	17251.6481
-53	17174.773
-52	17698.8793
-51	17631.439
-50	17308.7926
-49	17855.2693
-48	18496.8765
-47	18454.7133
-46	17835.416
-45	18935.2394
-44	18966.9389
-43	19134.486
-42	19930.6717
-41	19664.2399
-40	20279.4632
-39	20843.9373
-38	21083.2042
-37	21844.7543
-36	22497.3872
-35	22457.0033
-34	23360.3216
-33	23790.6828
-32	24508.6321
-31	24478.4426
-30	25507.2969
-29	25665.8133
-28	25683.4965
-27	25639.0687
-26	25255.4074
-25	24932.9632
-24	26439.9296
-23	26726.7794
-22	26884.305
-21	28586.1621
-20	28966.1877
-19	29473.6096
-18	31537.4434
-17	31954.5386
-16	32564.0494
-15	34676.6039
-14	34977.605
-13	37103.025
-12	40353.6814
-11	42144.9942
-10	44713.1653
-9	50885.608
-8	53034.4117
-7	56739.9987
-6	63436.1658
-5	72172.1085
-4	81883.0243
-3	97253.1411
-2	107982.3005
-1	134403.2161
0	534318.3639
1	134403.2161
2	107982.3005
3	97253.1411
4	81883.0243
5	72172.1085
6	63436.1658
7	56739.9987
8	53034.4117
9	50885.608
10	44713.1653
11	42144.9942
12	40353.6814
13	37103.025
14	34977.605
15	34676.6039
16	32564.0494
17	31954.5386
18	31537.4434
19	29473.6096
20	28966.1877
21	28586.1621
22	26884.305
23	26726.7794
24	26439.9296
25	24932.9632
26	25255.4074
27	25639.0687
28	25683.4965
29	25665.8133
30	25507.2969
31	24478.4426
32	24508.6321
33	23790.6828
34	23360.3216
35	22457.0033
36	22497.3872
37	21844.7543
38	21083.2042
39	20843.9373
40	20279.4632
41	19664.2399
42	19930.6717
43	19134.486
44	18966.9389
45	18935.2394
46	17835.416
47	18454.7133
48	18496.8765
49	17855.2693
50	17308.7926
51	17631.439
52	17698.8793
53	17174.773
54	17251.6481
55	17296.7765
56	17299.2125
57	17609.4484
58	17745.7503
59	17204.0686
60	17184.8414
61	17277.1063
62	17184.0079
63	17218.4334
64	16626.7222
65	16418.2812
66	16501.7369
67	15920.6032
68	15856.3878
69	16393.5684
70	15624.1531
71	15408.2097
72	15718.1208
73	15570.4034
74	15688.7658
75	15538.5619
76	15413.6934
77	14608.6363
78	14866.4471
79	14308.123
80	14228.783
81	14326.5006
82	13809.3144
83	13823.5208
84	14156.9925
85	13322.6204
86	13737.0285
87	13714.6077
88	13252.8354
89	13107.3302
90	12953.3561
91	12738.8894
92	12696.8721
93	13314.3428
94	13128.2904
95	13842.7205
96	13708.3031
97	13083.513
98	13534.5186
99	13770.6398
100	13345.3505
101	12991.6924
102	13117.4011
103	13176.1737
104	12734.7276
105	12978.1435
106	13122.7118
107	13140.6637
108	13322.3221
109	12813.1474
110	12569.2396
111	12945.6068
112	12304.8781
113	12599.207
114	12809.4832
115	12402.8916
116	12187.2144
117	12258.8906
118	11842.0783
119	12006.0389
120	12190.6698
121	11916.8845
122	12093.894
123	12676.9831
124	11863.524
125	12125.8051
126	11941.9719
127	12346.9358
128	12049.9529
129	12352.4861
130	12434.0058
131	11915.9567
132	12402.6034
133	11857.9225
134	11405.6709
135	11980.8828
136	11928.1188
137	12206.5302
138	11816.518
139	11912.1304
140	11496.2091
141	11860.6888
142	11378.2484
143	12138.654
144	12244.2677
145	11728.6447
146	11653.8752
147	12119.0936
148	11484.09
149	11875.2893
150	11846.3672
151	11856.3109
152	12009.0925
153	12170.0739
154	12099.671
155	11758.4342
156	12162.8147
157	12020.0769
158	11882.2292
159	11719.5461
160	11616.0565
161	11622.4335
162	11818.3635
163	11961.4355
164	12280.9153
165	11895.4403
166	11954.9743
167	11895.998
168	11522.874
169	11655.0811
170	11664.93
171	11705.0409
172	11533.2721
173	11675.8725
174	11474.9803
175	11279.2475
176	11512.2908
177	11095.6479
178	10980.2498
179	11090.3973
180	11263.97
181	11631.4812
182	11176.7717
183	11794.1855
184	11518.829
185	11273.5073
186	11742.7655
187	11271.9161
188	11495.9117
189	11699.7955
190	11357.048
191	11672.3814
192	12131.9287
193	12127.6659
194	12248.7797
195	12073.5427
196	11586.9207
197	11515.4881
198	11640.0489
199	11349.2091
200	5438.8024
