Position	Value
-200	7042.8252
-199	14044.1074
-198	14051.0547
-197	14328.5894
-196	13890.2495
-195	14197.5366
-194	13971.3001
-193	14248.199
-192	14018.8684
-191	14220.5221
-190	14387.4961
-189	14524.4485
-188	14851.6422
-187	14914.8317
-186	14623.0659
-185	14534.8928
-184	14671.4529
-183	14734.294
-182	13870.775
-181	14310.0187
-180	14967.6467
-179	14005.8792
-178	14077.0959
-177	14693.7433
-176	13950.1505
-175	14007.4238
-174	13880.2384
-173	14158.1759
-172	14196.6795
-171	14102.8906
-170	14370.2745
-169	14587.3481
-168	14446.2884
-167	14588.6697
-166	14621.2881
-165	15057.3299
-164	15251.3269
-163	15182.2204
-162	15171.0111
-161	14598.0075
-160	15096.3187
-159	15283.1821
-158	15023.0205
-157	15449.2517
-156	15415.5843
-155	15496.0463
-154	15599.2516
-153	15273.6593
-152	15551.3678
-151	14942.7543
-150	14996.3423
-149	15172.79
-148	14977.744
-147	14755.191
-146	14311.661
-145	15008.247
-144	14601.1857
-143	14339.5348
-142	14399.7641
-141	14887.2476
-140	14819.3517
-139	14760.8496
-138	14533.6053
-137	14592.9237
-136	15149.6394
-135	14686.3736
-134	14550.8729
-133	15023.8567
-132	15162.3859
-131	14962.5317
-130	15088.9083
-129	15409.8898
-128	15317.9045
-127	15643.842
-126	15990.127
-125	15502.9636
-124	15958.2094
-123	16493.561
-122	15982.9309
-121	16095.8144
-120	15874.7864
-119	15706.2672
-118	15878.3471
-117	15184.7454
-116	15058.2168
-115	14807.7559
-114	15055.0791
-113	14831.9359
-112	14738.9752
-111	15216.4915
-110	14689.7637
-109	14528.0719
-108	14846.5222
-107	15258.1594
-106	15028.8341
-105	14901.5055
-104	15340.3091
-103	15054.8027
-102	16161.627
-101	15883.3618
-100	15943.0174
-99	16284.0341
-98	16406.8941
-97	16055.5493
-96	16580.5819
-95	16402.8825
-94	17152.348
-93	16986.0362
-92	17399.7305
-91	17354.4202
-90	16826.325
-89	16678.1102
-88	16790.3958
-87	15908.983
-86	16218.1142
-85	15252.9835
-84	15548.6895
-83	14306.9838
-82	14769.1919
-81	14753.9683
-80	14202.8264
-79	14820.8577
-78	14279.4223
-77	14703.6404
-76	14953.4828
-75	14992.1863
-74	14627.4759
-73	15053.6504
-72	15576.1214
-71	15174.1849
-70	15988.2927
-69	16712.6916
-68	16721.8773
-67	17040.839
-66	17733.2924
-65	18227.5069
-64	18261.6749
-63	19236.6426
-62	19362.7065
-61	18705.159
-60	18856.0524
-59	18826.4758
-58	18878.93
-57	18618.0393
-56	17366.7119
-55	17633.9016
-54	16568.6001
-53	16032.9994
-52	15649.5201
-51	15610.3062
-50	15414.9232
-49	15142.6982
-48	15228.7937
-47	15207.6536
-46	14872.6501
-45	15415.921
-44	15699.501
-43	15539.1755
-42	16397.193
-41	15866.0205
-40	15877.6621
-39	17134.8057
-38	17168.585
-37	17890.217
-36	17943.4071
-35	19002.3934
-34	19424.3361
-33	20326.4593
-32	20817.4451
-31	21058.6421
-30	21956.9173
-29	21570.0885
-28	22121.145
-27	21095.8539
-26	18809.1005
-25	16260.7115
-24	16211.6437
-23	16053.1647
-22	16236.5337
-21	16532.5171
-20	16315.5793
-19	16537.4961
-18	16670.116
-17	17263.2403
-16	18347.5089
-15	19377.4382
-14	19919.3984
-13	21026.1765
-12	24597.5931
-11	26905.1076
-10	29084.3843
-9	32531.416
-8	34954.4302
-7	40812.2572
-6	46430.8335
-5	53068.28
-4	60686.8089
-3	68385.2559
-2	76637.0574
-1	79116.8846
0	670461.2063
1	79116.8846
2	76637.0574
3	68385.2559
4	60686.8089
5	53068.28
6	46430.8335
7	40812.2572
8	34954.4302
9	32531.416
10	29084.3843
11	26905.1076
12	24597.5931
13	21026.1765
14	19919.3984
15	19377.4382
16	18347.5089
17	17263.2403
18	16670.116
19	16537.4961
20	16315.5793
21	16532.5171
22	16236.5337
23	16053.1647
24	16211.6437
25	16260.7115
26	18809.1005
27	21095.8539
28	22121.145
29	21570.0885
30	21956.9173
31	21058.6421
32	20817.4451
33	20326.4593
34	19424.3361
35	19002.3934
36	17943.4071
37	17890.217
38	17168.585
39	17134.8057
40	15877.6621
41	15866.0205
42	16397.193
43	15539.1755
44	15699.501
45	15415.921
46	14872.6501
47	15207.6536
48	15228.7937
49	15142.6982
50	15414.9232
51	15610.3062
52	15649.5201
53	16032.9994
54	16568.6001
55	17633.9016
56	17366.7119
57	18618.0393
58	18878.93
59	18826.4758
60	18856.0524
61	18705.159
62	19362.7065
63	19236.6426
64	18261.6749
65	18227.5069
66	17733.2924
67	17040.839
68	16721.8773
69	16712.6916
70	15988.2927
71	15174.1849
72	15576.1214
73	15053.6504
74	14627.4759
75	14992.1863
76	14953.4828
77	14703.6404
78	14279.4223
79	14820.8577
80	14202.8264
81	14753.9683
82	14769.1919
83	14306.9838
84	15548.6895
85	15252.9835
86	16218.1142
87	15908.983
88	16790.3958
89	16678.1102
90	16826.325
91	17354.4202
92	17399.7305
93	16986.0362
94	17152.348
95	16402.8825
96	16580.5819
97	16055.5493
98	16406.8941
99	16284.0341
100	15943.0174
101	15883.3618
102	16161.627
103	15054.8027
104	15340.3091
105	14901.5055
106	15028.8341
107	15258.1594
108	14846.5222
109	14528.0719
110	14689.7637
111	15216.4915
112	14738.9752
113	14831.9359
114	15055.0791
115	14807.7559
116	15058.2168
117	15184.7454
118	15878.3471
119	15706.2672
120	15874.7864
121	16095.8144
122	15982.9309
123	16493.561
124	15958.2094
125	15502.9636
126	15990.127
127	15643.842
128	15317.9045
129	15409.8898
130	15088.9083
131	14962.5317
132	15162.3859
133	15023.8567
134	14550.8729
135	14686.3736
136	15149.6394
137	14592.9237
138	14533.6053
139	14760.8496
140	14819.3517
141	14887.2476
142	14399.7641
143	14339.5348
144	14601.1857
145	15008.247
146	14311.661
147	14755.191
148	14977.744
149	15172.79
150	14996.3423
151	14942.7543
152	15551.3678
153	15273.6593
154	15599.2516
155	15496.0463
156	15415.5843
157	15449.2517
158	15023.0205
159	15283.1821
160	15096.3187
161	14598.0075
162	15171.0111
163	15182.2204
164	15251.3269
165	15057.3299
166	14621.2881
167	14588.6697
168	14446.2884
169	14587.3481
170	14370.2745
171	14102.8906
172	14196.6795
173	14158.1759
174	13880.2384
175	14007.4238
176	13950.1505
177	14693.7433
178	14077.0959
179	14005.8792
180	14967.6467
181	14310.0187
182	13870.775
183	14734.294
184	14671.4529
185	14534.8928
186	14623.0659
187	14914.8317
188	14851.6422
189	14524.4485
190	14387.4961
191	14220.5221
192	14018.8684
193	14248.199
194	13971.3001
195	14197.5366
196	13890.2495
197	14328.5894
198	14051.0547
199	14044.1074
200	7042.8252
