Position	Value
-200	0.4573
-199	1.3595
-198	2.2397
-197	0.9863
-196	0.3242
-195	0.4422
-194	0.2988
-193	0.079
-192	0.0593
-191	0.8576
-190	0.8664
-189	1.3799
-188	1.6383
-187	2.2992
-186	1.5036
-185	1.3184
-184	0.7712
-183	0.2253
-182	0.0
-181	0.0
-180	0.1034
-179	0.359
-178	0.4292
-177	1.0185
-176	1.9659
-175	1.1381
-174	1.0306
-173	0.6441
-172	0.3273
-171	0.0588
-170	0.0994
-169	0.3038
-168	0.6161
-167	0.7776
-166	1.0257
-165	1.8002
-164	1.1227
-163	1.2327
-162	0.642
-161	0.1667
-160	0.0476
-159	0.0497
-158	1.6923
-157	1.23
-156	1.6132
-155	2.5655
-154	1.5069
-153	0.9141
-152	0.2571
-151	0.3466
-150	0.0858
-149	0.0
-148	0.1939
-147	0.9139
-146	1.127
-145	1.0142
-144	1.0718
-143	1.5434
-142	0.5806
-141	0.3738
-140	1.2191
-139	0.1621
-138	0.1608
-137	0.1051
-136	0.5958
-135	1.0315
-134	1.5976
-133	1.6451
-132	1.6506
-131	0.7141
-130	0.6562
-129	0.6615
-128	0.051
-127	0.263
-126	0.88
-125	0.5744
-124	1.1008
-123	0.8402
-122	1.3655
-121	1.3315
-120	1.1029
-119	4.9999
-118	1.5576
-117	0.2778
-116	0.0723
-115	3.1144
-114	4.451
-113	1.7908
-112	0.9521
-111	1.3161
-110	1.3352
-109	0.9825
-108	0.9747
-107	0.5909
-106	0.6736
-105	0.0625
-104	1.0
-103	0.3318
-102	0.5719
-101	0.5354
-100	1.3022
-99	1.4876
-98	1.0823
-97	0.5371
-96	1.0611
-95	0.2332
-94	0.0526
-93	0.4565
-92	0.6162
-91	0.6886
-90	0.2749
-89	1.7707
-88	3.7289
-87	5.5213
-86	1.4221
-85	2.3853
-84	1.0
-83	6.0
-82	4.0556
-81	0.2193
-80	0.5445
-79	0.5313
-78	2.643
-77	2.3134
-76	2.7244
-75	1.4845
-74	1.0302
-73	1.5308
-72	0.0
-71	0.0047
-70	0.6275
-69	0.3562
-68	0.3266
-67	1.0393
-66	1.0237
-65	0.8591
-64	1.2893
-63	2.1685
-62	0.7193
-61	0.3056
-60	1.5556
-59	0.0
-58	0.5559
-57	0.8607
-56	0.8084
-55	1.5051
-54	1.704
-53	0.6604
-52	0.8145
-51	0.2778
-50	0.0
-49	0.0
-48	0.0
-47	0.1962
-46	0.5113
-45	0.7668
-44	1.9461
-43	1.2569
-42	1.0409
-41	1.9953
-40	0.3366
-39	2.5
-38	4.756
-37	4.0526
-36	2.7126
-35	1.5446
-34	0.9916
-33	6.4657
-32	1.9794
-31	2.6606
-30	6.9222
-29	3.2827
-28	1.25
-27	2.2105
-26	0.553
-25	1.8456
-24	1.7943
-23	1.3953
-22	2.1174
-21	1.7327
-20	1.1776
-19	1.3321
-18	1.011
-17	0.5
-16	0.2988
-15	1.6612
-14	1.0551
-13	0.9119
-12	4.6612
-11	9.568
-10	4.872
-9	4.9755
-8	12.4523
-7	6.2894
-6	7.7667
-5	16.4644
-4	75.0617
-3	103.1004
-2	90.8362
-1	142.2434
0	817.0958
1	142.2434
2	90.8362
3	103.1004
4	75.0617
5	16.4644
6	7.7667
7	6.2894
8	12.4523
9	4.9755
10	4.872
11	9.568
12	4.6612
13	0.9119
14	1.0551
15	1.6612
16	0.2988
17	0.5
18	1.011
19	1.3321
20	1.1776
21	1.7327
22	2.1174
23	1.3953
24	1.7943
25	1.8456
26	0.553
27	2.2105
28	1.25
29	3.2827
30	6.9222
31	2.6606
32	1.9794
33	6.4657
34	0.9916
35	1.5446
36	2.7126
37	4.0526
38	4.756
39	2.5
40	0.3366
41	1.9953
42	1.0409
43	1.2569
44	1.9461
45	0.7668
46	0.5113
47	0.1962
48	0.0
49	0.0
50	0.0
51	0.2778
52	0.8145
53	0.6604
54	1.704
55	1.5051
56	0.8084
57	0.8607
58	0.5559
59	0.0
60	1.5556
61	0.3056
62	0.7193
63	2.1685
64	1.2893
65	0.8591
66	1.0237
67	1.0393
68	0.3266
69	0.3562
70	0.6275
71	0.0047
72	0.0
73	1.5308
74	1.0302
75	1.4845
76	2.7244
77	2.3134
78	2.643
79	0.5313
80	0.5445
81	0.2193
82	4.0556
83	6.0
84	1.0
85	2.3853
86	1.4221
87	5.5213
88	3.7289
89	1.7707
90	0.2749
91	0.6886
92	0.6162
93	0.4565
94	0.0526
95	0.2332
96	1.0611
97	0.5371
98	1.0823
99	1.4876
100	1.3022
101	0.5354
102	0.5719
103	0.3318
104	1.0
105	0.0625
106	0.6736
107	0.5909
108	0.9747
109	0.9825
110	1.3352
111	1.3161
112	0.9521
113	1.7908
114	4.451
115	3.1144
116	0.0723
117	0.2778
118	1.5576
119	4.9999
120	1.1029
121	1.3315
122	1.3655
123	0.8402
124	1.1008
125	0.5744
126	0.88
127	0.263
128	0.051
129	0.6615
130	0.6562
131	0.7141
132	1.6506
133	1.6451
134	1.5976
135	1.0315
136	0.5958
137	0.1051
138	0.1608
139	0.1621
140	1.2191
141	0.3738
142	0.5806
143	1.5434
144	1.0718
145	1.0142
146	1.127
147	0.9139
148	0.1939
149	0.0
150	0.0858
151	0.3466
152	0.2571
153	0.9141
154	1.5069
155	2.5655
156	1.6132
157	1.23
158	1.6923
159	0.0497
160	0.0476
161	0.1667
162	0.642
163	1.2327
164	1.1227
165	1.8002
166	1.0257
167	0.7776
168	0.6161
169	0.3038
170	0.0994
171	0.0588
172	0.3273
173	0.6441
174	1.0306
175	1.1381
176	1.9659
177	1.0185
178	0.4292
179	0.359
180	0.1034
181	0.0
182	0.0
183	0.2253
184	0.7712
185	1.3184
186	1.5036
187	2.2992
188	1.6383
189	1.3799
190	0.8664
191	0.8576
192	0.0593
193	0.079
194	0.2988
195	0.4422
196	0.3242
197	0.9863
198	2.2397
199	1.3595
200	0.4573
