Position	Value
-200	81134.8153
-199	160395.9614
-198	161481.6516
-197	161170.7415
-196	161328.9564
-195	161315.0778
-194	161858.2264
-193	162838.0341
-192	162294.0222
-191	162158.9207
-190	163113.9487
-189	162060.1624
-188	163346.1993
-187	162807.0899
-186	162612.7738
-185	162841.5259
-184	164120.9202
-183	163367.7841
-182	162441.1791
-181	164134.985
-180	162655.3845
-179	163164.5876
-178	163170.1077
-177	165227.9939
-176	163671.7922
-175	162005.4296
-174	165738.1022
-173	163967.5532
-172	164454.8433
-171	164932.2555
-170	163240.9317
-169	164164.3848
-168	165596.0893
-167	166269.1082
-166	165198.3288
-165	166586.1127
-164	166380.92
-163	167598.4387
-162	167960.6373
-161	166997.1436
-160	167988.4476
-159	168419.2092
-158	167144.8105
-157	167050.5589
-156	169708.2988
-155	167899.9814
-154	167066.6991
-153	167733.214
-152	169100.8072
-151	168871.1759
-150	167735.7852
-149	166979.4408
-148	167704.7525
-147	167969.5922
-146	166379.4856
-145	169376.7037
-144	169609.2253
-143	168491.434
-142	168303.1935
-141	167392.6854
-140	167569.5594
-139	168748.4218
-138	167135.5775
-137	167590.3901
-136	169480.638
-135	170638.4637
-134	167930.5313
-133	168075.4443
-132	171242.6878
-131	170705.4219
-130	173242.6483
-129	171656.1916
-128	170839.817
-127	170891.5964
-126	171861.4387
-125	171405.3067
-124	170620.8084
-123	171042.1337
-122	169594.0655
-121	169138.4581
-120	171310.6007
-119	170423.0919
-118	169679.0983
-117	170558.6573
-116	167548.4661
-115	168975.1893
-114	171035.8585
-113	169693.6487
-112	168531.6085
-111	171787.3959
-110	170710.0268
-109	170683.072
-108	172836.8356
-107	172672.8461
-106	170231.7321
-105	171312.3056
-104	170269.8254
-103	172549.8413
-102	174763.908
-101	174017.8704
-100	175546.5888
-99	176945.9149
-98	176853.5723
-97	177042.4849
-96	178481.2195
-95	177135.4529
-94	179677.0086
-93	178725.5734
-92	176946.0832
-91	177680.4629
-90	178288.2207
-89	176524.4545
-88	178841.2192
-87	178205.0191
-86	177590.7145
-85	174568.6399
-84	176634.3906
-83	173275.5888
-82	175497.187
-81	176051.6294
-80	173853.3757
-79	175110.8281
-78	176267.3097
-77	177526.2121
-76	176755.4842
-75	178638.9641
-74	176890.4245
-73	177812.8607
-72	180712.7779
-71	179535.6659
-70	182939.6726
-69	184073.0882
-68	185902.9133
-67	187409.0442
-66	190899.1746
-65	191836.0371
-64	190350.2356
-63	192915.6452
-62	192561.7858
-61	191183.2517
-60	191682.002
-59	189759.9829
-58	190973.4919
-57	188487.4287
-56	187681.8076
-55	187934.3519
-54	187065.895
-53	187585.2863
-52	188836.6381
-51	187986.7316
-50	186398.8349
-49	187292.39
-48	189564.9367
-47	186859.1865
-46	185294.8553
-45	186579.5803
-44	186158.4401
-43	186568.8562
-42	190159.5539
-41	185988.3994
-40	189260.2685
-39	189973.3106
-38	192833.4874
-37	195631.1343
-36	197866.4066
-35	200803.3085
-34	203570.9525
-33	206436.0552
-32	210087.9204
-31	208610.9092
-30	209931.0995
-29	202038.0028
-28	194800.0771
-27	191238.2175
-26	193958.4432
-25	191843.0847
-24	194068.5988
-23	198460.6765
-22	203988.9057
-21	212747.7847
-20	217942.7762
-19	222775.3017
-18	226385.4701
-17	231949.3552
-16	232819.2825
-15	239596.9517
-14	246237.9147
-13	253844.7345
-12	265450.1519
-11	272512.4858
-10	278257.26
-9	293710.6604
-8	299909.4327
-7	319012.7959
-6	329374.6688
-5	354168.5578
-4	384833.7312
-3	427561.4017
-2	423646.7169
-1	439812.7067
0	1471333.1707
1	439812.7067
2	423646.7169
3	427561.4017
4	384833.7312
5	354168.5578
6	329374.6688
7	319012.7959
8	299909.4327
9	293710.6604
10	278257.26
11	272512.4858
12	265450.1519
13	253844.7345
14	246237.9147
15	239596.9517
16	232819.2825
17	231949.3552
18	226385.4701
19	222775.3017
20	217942.7762
21	212747.7847
22	203988.9057
23	198460.6765
24	194068.5988
25	191843.0847
26	193958.4432
27	191238.2175
28	194800.0771
29	202038.0028
30	209931.0995
31	208610.9092
32	210087.9204
33	206436.0552
34	203570.9525
35	200803.3085
36	197866.4066
37	195631.1343
38	192833.4874
39	189973.3106
40	189260.2685
41	185988.3994
42	190159.5539
43	186568.8562
44	186158.4401
45	186579.5803
46	185294.8553
47	186859.1865
48	189564.9367
49	187292.39
50	186398.8349
51	187986.7316
52	188836.6381
53	187585.2863
54	187065.895
55	187934.3519
56	187681.8076
57	188487.4287
58	190973.4919
59	189759.9829
60	191682.002
61	191183.2517
62	192561.7858
63	192915.6452
64	190350.2356
65	191836.0371
66	190899.1746
67	187409.0442
68	185902.9133
69	184073.0882
70	182939.6726
71	179535.6659
72	180712.7779
73	177812.8607
74	176890.4245
75	178638.9641
76	176755.4842
77	177526.2121
78	176267.3097
79	175110.8281
80	173853.3757
81	176051.6294
82	175497.187
83	173275.5888
84	176634.3906
85	174568.6399
86	177590.7145
87	178205.0191
88	178841.2192
89	176524.4545
90	178288.2207
91	177680.4629
92	176946.0832
93	178725.5734
94	179677.0086
95	177135.4529
96	178481.2195
97	177042.4849
98	176853.5723
99	176945.9149
100	175546.5888
101	174017.8704
102	174763.908
103	172549.8413
104	170269.8254
105	171312.3056
106	170231.7321
107	172672.8461
108	172836.8356
109	170683.072
110	170710.0268
111	171787.3959
112	168531.6085
113	169693.6487
114	171035.8585
115	168975.1893
116	167548.4661
117	170558.6573
118	169679.0983
119	170423.0919
120	171310.6007
121	169138.4581
122	169594.0655
123	171042.1337
124	170620.8084
125	171405.3067
126	171861.4387
127	170891.5964
128	170839.817
129	171656.1916
130	173242.6483
131	170705.4219
132	171242.6878
133	168075.4443
134	167930.5313
135	170638.4637
136	169480.638
137	167590.3901
138	167135.5775
139	168748.4218
140	167569.5594
141	167392.6854
142	168303.1935
143	168491.434
144	169609.2253
145	169376.7037
146	166379.4856
147	167969.5922
148	167704.7525
149	166979.4408
150	167735.7852
151	168871.1759
152	169100.8072
153	167733.214
154	167066.6991
155	167899.9814
156	169708.2988
157	167050.5589
158	167144.8105
159	168419.2092
160	167988.4476
161	166997.1436
162	167960.6373
163	167598.4387
164	166380.92
165	166586.1127
166	165198.3288
167	166269.1082
168	165596.0893
169	164164.3848
170	163240.9317
171	164932.2555
172	164454.8433
173	163967.5532
174	165738.1022
175	162005.4296
176	163671.7922
177	165227.9939
178	163170.1077
179	163164.5876
180	162655.3845
181	164134.985
182	162441.1791
183	163367.7841
184	164120.9202
185	162841.5259
186	162612.7738
187	162807.0899
188	163346.1993
189	162060.1624
190	163113.9487
191	162158.9207
192	162294.0222
193	162838.0341
194	161858.2264
195	161315.0778
196	161328.9564
197	161170.7415
198	161481.6516
199	160395.9614
200	81134.8153
