Position	Value
-200	319.5208
-199	176.5471
-198	193.7333
-197	156.8383
-196	173.789
-195	162.4081
-194	197.7951
-193	149.335
-192	143.1242
-191	169.5409
-190	140.9966
-189	143.1681
-188	178.7967
-187	209.3067
-186	173.9291
-185	163.8909
-184	177.4618
-183	179.172
-182	165.8048
-181	199.0674
-180	237.393
-179	187.2503
-178	200.8094
-177	180.999
-176	193.7394
-175	155.7165
-174	220.3511
-173	206.4833
-172	185.8039
-171	234.8645
-170	205.4104
-169	204.1953
-168	225.7495
-167	257.6333
-166	242.9179
-165	226.5613
-164	205.7445
-163	200.465
-162	189.0498
-161	210.8172
-160	250.5606
-159	176.461
-158	195.7998
-157	221.8522
-156	226.6905
-155	208.6111
-154	199.2799
-153	237.281
-152	233.9611
-151	233.3285
-150	190.5727
-149	234.3972
-148	192.2218
-147	204.6207
-146	197.03
-145	211.3141
-144	257.0851
-143	157.9434
-142	218.3318
-141	220.3647
-140	245.1729
-139	222.7641
-138	243.3806
-137	257.7227
-136	255.8228
-135	268.9146
-134	266.0464
-133	212.5376
-132	299.9024
-131	239.2355
-130	225.9056
-129	249.2056
-128	249.4741
-127	245.9185
-126	290.905
-125	264.3147
-124	269.8964
-123	319.8199
-122	320.5045
-121	272.9279
-120	233.6503
-119	230.9807
-118	249.3348
-117	255.0949
-116	217.0098
-115	262.1571
-114	218.6244
-113	237.1317
-112	239.3747
-111	239.2444
-110	328.0032
-109	272.6651
-108	227.1296
-107	284.1681
-106	297.8581
-105	326.1202
-104	257.7469
-103	288.0048
-102	271.6059
-101	283.1198
-100	299.5241
-99	347.0219
-98	364.2282
-97	327.599
-96	333.3455
-95	347.0302
-94	382.3194
-93	313.9794
-92	312.2812
-91	292.6909
-90	339.6482
-89	268.5818
-88	280.9539
-87	284.8216
-86	281.6932
-85	257.5098
-84	232.8415
-83	228.6282
-82	236.8757
-81	258.7612
-80	199.3039
-79	263.9874
-78	312.8533
-77	277.7467
-76	243.6837
-75	291.622
-74	324.7885
-73	301.1167
-72	334.1721
-71	386.5891
-70	410.0503
-69	380.4576
-68	361.831
-67	453.3466
-66	453.7244
-65	414.9263
-64	457.1278
-63	484.7852
-62	506.3665
-61	450.623
-60	406.5893
-59	472.7833
-58	410.8709
-57	342.9389
-56	363.0328
-55	377.0825
-54	299.0159
-53	309.2
-52	297.5749
-51	322.3968
-50	276.9751
-49	298.5446
-48	264.142
-47	301.1286
-46	248.9371
-45	309.4444
-44	274.0494
-43	301.6673
-42	363.1959
-41	384.9581
-40	390.4768
-39	403.1751
-38	471.0344
-37	460.5921
-36	602.8726
-35	580.1241
-34	711.8275
-33	597.1732
-32	650.4804
-31	686.4484
-30	672.2646
-29	665.9293
-28	629.9671
-27	475.5064
-26	376.098
-25	350.5273
-24	337.8845
-23	308.8583
-22	289.1409
-21	293.3558
-20	287.7812
-19	299.3798
-18	339.5109
-17	314.7951
-16	320.9341
-15	324.7
-14	314.1378
-13	343.9725
-12	390.766
-11	332.6071
-10	397.9137
-9	389.5356
-8	505.3705
-7	479.5491
-6	486.533
-5	573.2366
-4	810.4627
-3	855.7011
-2	813.6698
-1	787.782
0	12600.5096
1	787.782
2	813.6698
3	855.7011
4	810.4627
5	573.2366
6	486.533
7	479.5491
8	505.3705
9	389.5356
10	397.9137
11	332.6071
12	390.766
13	343.9725
14	314.1378
15	324.7
16	320.9341
17	314.7951
18	339.5109
19	299.3798
20	287.7812
21	293.3558
22	289.1409
23	308.8583
24	337.8845
25	350.5273
26	376.098
27	475.5064
28	629.9671
29	665.9293
30	672.2646
31	686.4484
32	650.4804
33	597.1732
34	711.8275
35	580.1241
36	602.8726
37	460.5921
38	471.0344
39	403.1751
40	390.4768
41	384.9581
42	363.1959
43	301.6673
44	274.0494
45	309.4444
46	248.9371
47	301.1286
48	264.142
49	298.5446
50	276.9751
51	322.3968
52	297.5749
53	309.2
54	299.0159
55	377.0825
56	363.0328
57	342.9389
58	410.8709
59	472.7833
60	406.5893
61	450.623
62	506.3665
63	484.7852
64	457.1278
65	414.9263
66	453.7244
67	453.3466
68	361.831
69	380.4576
70	410.0503
71	386.5891
72	334.1721
73	301.1167
74	324.7885
75	291.622
76	243.6837
77	277.7467
78	312.8533
79	263.9874
80	199.3039
81	258.7612
82	236.8757
83	228.6282
84	232.8415
85	257.5098
86	281.6932
87	284.8216
88	280.9539
89	268.5818
90	339.6482
91	292.6909
92	312.2812
93	313.9794
94	382.3194
95	347.0302
96	333.3455
97	327.599
98	364.2282
99	347.0219
100	299.5241
101	283.1198
102	271.6059
103	288.0048
104	257.7469
105	326.1202
106	297.8581
107	284.1681
108	227.1296
109	272.6651
110	328.0032
111	239.2444
112	239.3747
113	237.1317
114	218.6244
115	262.1571
116	217.0098
117	255.0949
118	249.3348
119	230.9807
120	233.6503
121	272.9279
122	320.5045
123	319.8199
124	269.8964
125	264.3147
126	290.905
127	245.9185
128	249.4741
129	249.2056
130	225.9056
131	239.2355
132	299.9024
133	212.5376
134	266.0464
135	268.9146
136	255.8228
137	257.7227
138	243.3806
139	222.7641
140	245.1729
141	220.3647
142	218.3318
143	157.9434
144	257.0851
145	211.3141
146	197.03
147	204.6207
148	192.2218
149	234.3972
150	190.5727
151	233.3285
152	233.9611
153	237.281
154	199.2799
155	208.6111
156	226.6905
157	221.8522
158	195.7998
159	176.461
160	250.5606
161	210.8172
162	189.0498
163	200.465
164	205.7445
165	226.5613
166	242.9179
167	257.6333
168	225.7495
169	204.1953
170	205.4104
171	234.8645
172	185.8039
173	206.4833
174	220.3511
175	155.7165
176	193.7394
177	180.999
178	200.8094
179	187.2503
180	237.393
181	199.0674
182	165.8048
183	179.172
184	177.4618
185	163.8909
186	173.9291
187	209.3067
188	178.7967
189	143.1681
190	140.9966
191	169.5409
192	143.1242
193	149.335
194	197.7951
195	162.4081
196	173.789
197	156.8383
198	193.7333
199	176.5471
200	319.5208
