Position	Value
-200	19.246
-199	32.6988
-198	52.0301
-197	31.3932
-196	39.6031
-195	41.1933
-194	35.0163
-193	34.7548
-192	36.8156
-191	44.8526
-190	41.7984
-189	43.6108
-188	55.0836
-187	53.3274
-186	48.1198
-185	46.6618
-184	46.6901
-183	38.0
-182	35.7547
-181	39.8967
-180	49.6497
-179	49.6926
-178	29.9799
-177	31.6727
-176	41.9257
-175	25.3039
-174	47.2945
-173	41.4795
-172	58.9144
-171	45.0258
-170	42.0347
-169	44.003
-168	45.3781
-167	39.1457
-166	39.0796
-165	41.4097
-164	62.8804
-163	35.651
-162	43.2882
-161	41.2046
-160	45.6872
-159	23.1503
-158	41.8593
-157	62.854
-156	48.8663
-155	36.7924
-154	43.3092
-153	56.4804
-152	68.0212
-151	43.296
-150	43.3751
-149	57.2005
-148	56.9729
-147	53.45
-146	58.6175
-145	50.5665
-144	54.3616
-143	53.8874
-142	48.2446
-141	35.045
-140	52.7888
-139	48.203
-138	37.7793
-137	50.5555
-136	74.0631
-135	60.0797
-134	44.8675
-133	41.152
-132	58.9899
-131	43.6223
-130	50.3543
-129	73.648
-128	60.6621
-127	75.3223
-126	49.2356
-125	36.8208
-124	47.8738
-123	42.2229
-122	45.7379
-121	51.0167
-120	51.8164
-119	49.5641
-118	43.0771
-117	47.1531
-116	42.0976
-115	39.8949
-114	42.3753
-113	51.8827
-112	44.7404
-111	41.0445
-110	53.9979
-109	61.0779
-108	36.1775
-107	42.6356
-106	44.0042
-105	53.7962
-104	57.5997
-103	47.4171
-102	59.8165
-101	78.6897
-100	51.4228
-99	87.087
-98	53.2803
-97	67.6774
-96	42.2261
-95	52.8207
-94	39.7659
-93	41.7684
-92	45.9293
-91	47.3864
-90	55.1715
-89	32.918
-88	47.6724
-87	33.1578
-86	57.3498
-85	42.3834
-84	29.4922
-83	31.9093
-82	46.7309
-81	42.6455
-80	44.8974
-79	46.5645
-78	32.8016
-77	31.8242
-76	39.4035
-75	70.456
-74	53.6877
-73	51.7889
-72	58.5509
-71	53.1792
-70	68.7179
-69	44.971
-68	55.8326
-67	42.5155
-66	66.5206
-65	53.5413
-64	56.6413
-63	69.1958
-62	55.2785
-61	58.6848
-60	55.1422
-59	66.1533
-58	68.5556
-57	54.369
-56	64.4814
-55	69.7972
-54	75.9945
-53	45.1187
-52	49.7651
-51	63.8562
-50	33.844
-49	50.4131
-48	55.9375
-47	55.7659
-46	30.5569
-45	55.6913
-44	42.7384
-43	43.4101
-42	59.0347
-41	53.797
-40	42.2173
-39	47.1598
-38	56.5009
-37	47.4541
-36	61.8203
-35	77.358
-34	116.4598
-33	83.7278
-32	78.2751
-31	69.0408
-30	75.9164
-29	66.3901
-28	86.3234
-27	75.9616
-26	58.17
-25	46.6549
-24	58.8581
-23	47.7663
-22	57.89
-21	59.9462
-20	57.5213
-19	60.2621
-18	80.8526
-17	60.135
-16	60.5379
-15	65.2307
-14	63.7166
-13	69.9206
-12	80.5447
-11	108.1703
-10	104.1687
-9	166.9004
-8	173.1358
-7	228.3646
-6	278.7848
-5	299.9425
-4	334.4076
-3	380.5796
-2	509.9141
-1	606.3739
0	8338.613
1	606.3739
2	509.9141
3	380.5796
4	334.4076
5	299.9425
6	278.7848
7	228.3646
8	173.1358
9	166.9004
10	104.1687
11	108.1703
12	80.5447
13	69.9206
14	63.7166
15	65.2307
16	60.5379
17	60.135
18	80.8526
19	60.2621
20	57.5213
21	59.9462
22	57.89
23	47.7663
24	58.8581
25	46.6549
26	58.17
27	75.9616
28	86.3234
29	66.3901
30	75.9164
31	69.0408
32	78.2751
33	83.7278
34	116.4598
35	77.358
36	61.8203
37	47.4541
38	56.5009
39	47.1598
40	42.2173
41	53.797
42	59.0347
43	43.4101
44	42.7384
45	55.6913
46	30.5569
47	55.7659
48	55.9375
49	50.4131
50	33.844
51	63.8562
52	49.7651
53	45.1187
54	75.9945
55	69.7972
56	64.4814
57	54.369
58	68.5556
59	66.1533
60	55.1422
61	58.6848
62	55.2785
63	69.1958
64	56.6413
65	53.5413
66	66.5206
67	42.5155
68	55.8326
69	44.971
70	68.7179
71	53.1792
72	58.5509
73	51.7889
74	53.6877
75	70.456
76	39.4035
77	31.8242
78	32.8016
79	46.5645
80	44.8974
81	42.6455
82	46.7309
83	31.9093
84	29.4922
85	42.3834
86	57.3498
87	33.1578
88	47.6724
89	32.918
90	55.1715
91	47.3864
92	45.9293
93	41.7684
94	39.7659
95	52.8207
96	42.2261
97	67.6774
98	53.2803
99	87.087
100	51.4228
101	78.6897
102	59.8165
103	47.4171
104	57.5997
105	53.7962
106	44.0042
107	42.6356
108	36.1775
109	61.0779
110	53.9979
111	41.0445
112	44.7404
113	51.8827
114	42.3753
115	39.8949
116	42.0976
117	47.1531
118	43.0771
119	49.5641
120	51.8164
121	51.0167
122	45.7379
123	42.2229
124	47.8738
125	36.8208
126	49.2356
127	75.3223
128	60.6621
129	73.648
130	50.3543
131	43.6223
132	58.9899
133	41.152
134	44.8675
135	60.0797
136	74.0631
137	50.5555
138	37.7793
139	48.203
140	52.7888
141	35.045
142	48.2446
143	53.8874
144	54.3616
145	50.5665
146	58.6175
147	53.45
148	56.9729
149	57.2005
150	43.3751
151	43.296
152	68.0212
153	56.4804
154	43.3092
155	36.7924
156	48.8663
157	62.854
158	41.8593
159	23.1503
160	45.6872
161	41.2046
162	43.2882
163	35.651
164	62.8804
165	41.4097
166	39.0796
167	39.1457
168	45.3781
169	44.003
170	42.0347
171	45.0258
172	58.9144
173	41.4795
174	47.2945
175	25.3039
176	41.9257
177	31.6727
178	29.9799
179	49.6926
180	49.6497
181	39.8967
182	35.7547
183	38.0
184	46.6901
185	46.6618
186	48.1198
187	53.3274
188	55.0836
189	43.6108
190	41.7984
191	44.8526
192	36.8156
193	34.7548
194	35.0163
195	41.1933
196	39.6031
197	31.3932
198	52.0301
199	32.6988
200	19.246
