Position	Value
-200	13852.3591
-199	6558.1599
-198	6809.3644
-197	6750.8238
-196	6618.9547
-195	6828.2366
-194	6904.7795
-193	6581.213
-192	6785.7789
-191	7002.6923
-190	6821.3074
-189	6992.3999
-188	7011.7718
-187	6639.1323
-186	6801.4237
-185	7098.9024
-184	6848.1551
-183	6986.8632
-182	6672.5801
-181	7099.6587
-180	7023.8974
-179	6877.9064
-178	6629.0854
-177	7042.6663
-176	6711.1485
-175	6696.7955
-174	6721.1663
-173	6835.7577
-172	6829.6272
-171	7201.413
-170	6470.4147
-169	7023.9205
-168	6818.1904
-167	7032.456
-166	7158.0986
-165	7079.9332
-164	6922.4155
-163	7104.6888
-162	7284.2578
-161	7205.7318
-160	7199.9678
-159	7093.3435
-158	6937.1361
-157	6796.2927
-156	7104.1894
-155	6984.1398
-154	6883.2037
-153	6979.794
-152	7015.8445
-151	7080.214
-150	6879.5901
-149	7143.7348
-148	7063.5689
-147	7111.5
-146	7219.0092
-145	7209.475
-144	7209.9967
-143	7309.2165
-142	7099.6732
-141	6974.6389
-140	7261.9884
-139	7208.7518
-138	7268.195
-137	7236.483
-136	7404.2455
-135	7560.5503
-134	7327.8533
-133	7092.5779
-132	7446.1725
-131	7373.3198
-130	7209.3555
-129	7366.1863
-128	7354.77
-127	7118.8876
-126	7432.2029
-125	7411.7854
-124	7174.1423
-123	7042.2658
-122	7113.8171
-121	7101.9111
-120	7339.7284
-119	7393.6945
-118	7051.0359
-117	7130.4207
-116	6855.1728
-115	7173.6357
-114	7212.9432
-113	7171.6313
-112	7309.4178
-111	7322.3608
-110	7356.0202
-109	7310.2486
-108	7246.841
-107	7372.0663
-106	7454.5199
-105	7209.6464
-104	7170.5645
-103	7316.6283
-102	7479.8743
-101	7275.0999
-100	7323.009
-99	7396.939
-98	7659.0586
-97	7476.8788
-96	7552.5024
-95	7413.8994
-94	7736.0493
-93	7950.6587
-92	7431.6147
-91	7799.0931
-90	7830.7319
-89	7797.6437
-88	7630.491
-87	7924.0832
-86	7730.9071
-85	7679.9764
-84	7593.1592
-83	7467.4959
-82	7404.2968
-81	7604.7373
-80	7679.909
-79	7704.3173
-78	7574.8953
-77	7753.1191
-76	7866.0143
-75	8022.4975
-74	8019.0833
-73	7793.1269
-72	8184.3494
-71	8021.6609
-70	7992.6718
-69	8458.7411
-68	8111.8903
-67	8167.2259
-66	8908.4144
-65	8536.0856
-64	8831.9862
-63	9166.8332
-62	8892.2999
-61	8690.2148
-60	8710.0799
-59	8520.9524
-58	8646.0668
-57	8123.0028
-56	8080.9385
-55	8481.4044
-54	8162.1932
-53	8126.7889
-52	8269.416
-51	8319.8636
-50	8010.1604
-49	7828.9813
-48	8380.5796
-47	8079.254
-46	8104.2373
-45	8025.3207
-44	8057.5655
-43	8228.8585
-42	8635.6022
-41	8196.559
-40	8443.9232
-39	8415.6454
-38	8511.9564
-37	8874.8494
-36	8864.6864
-35	9087.6697
-34	9360.4926
-33	9591.261
-32	9711.8561
-31	9885.7547
-30	10029.2368
-29	10234.8755
-28	9384.0589
-27	8904.9238
-26	8052.3587
-25	8282.664
-24	8571.9989
-23	8981.8031
-22	9334.0343
-21	10049.3553
-20	10136.9619
-19	10845.7476
-18	11228.5456
-17	11236.7902
-16	10910.5454
-15	11335.6323
-14	12096.1411
-13	12069.9529
-12	13034.5732
-11	13257.1924
-10	13467.9545
-9	13813.9834
-8	14055.8849
-7	15089.6666
-6	15743.5641
-5	17943.0522
-4	21168.0072
-3	25802.4176
-2	25655.1231
-1	27860.5814
0	167415.1535
1	27860.5814
2	25655.1231
3	25802.4176
4	21168.0072
5	17943.0522
6	15743.5641
7	15089.6666
8	14055.8849
9	13813.9834
10	13467.9545
11	13257.1924
12	13034.5732
13	12069.9529
14	12096.1411
15	11335.6323
16	10910.5454
17	11236.7902
18	11228.5456
19	10845.7476
20	10136.9619
21	10049.3553
22	9334.0343
23	8981.8031
24	8571.9989
25	8282.664
26	8052.3587
27	8904.9238
28	9384.0589
29	10234.8755
30	10029.2368
31	9885.7547
32	9711.8561
33	9591.261
34	9360.4926
35	9087.6697
36	8864.6864
37	8874.8494
38	8511.9564
39	8415.6454
40	8443.9232
41	8196.559
42	8635.6022
43	8228.8585
44	8057.5655
45	8025.3207
46	8104.2373
47	8079.254
48	8380.5796
49	7828.9813
50	8010.1604
51	8319.8636
52	8269.416
53	8126.7889
54	8162.1932
55	8481.4044
56	8080.9385
57	8123.0028
58	8646.0668
59	8520.9524
60	8710.0799
61	8690.2148
62	8892.2999
63	9166.8332
64	8831.9862
65	8536.0856
66	8908.4144
67	8167.2259
68	8111.8903
69	8458.7411
70	7992.6718
71	8021.6609
72	8184.3494
73	7793.1269
74	8019.0833
75	8022.4975
76	7866.0143
77	7753.1191
78	7574.8953
79	7704.3173
80	7679.909
81	7604.7373
82	7404.2968
83	7467.4959
84	7593.1592
85	7679.9764
86	7730.9071
87	7924.0832
88	7630.491
89	7797.6437
90	7830.7319
91	7799.0931
92	7431.6147
93	7950.6587
94	7736.0493
95	7413.8994
96	7552.5024
97	7476.8788
98	7659.0586
99	7396.939
100	7323.009
101	7275.0999
102	7479.8743
103	7316.6283
104	7170.5645
105	7209.6464
106	7454.5199
107	7372.0663
108	7246.841
109	7310.2486
110	7356.0202
111	7322.3608
112	7309.4178
113	7171.6313
114	7212.9432
115	7173.6357
116	6855.1728
117	7130.4207
118	7051.0359
119	7393.6945
120	7339.7284
121	7101.9111
122	7113.8171
123	7042.2658
124	7174.1423
125	7411.7854
126	7432.2029
127	7118.8876
128	7354.77
129	7366.1863
130	7209.3555
131	7373.3198
132	7446.1725
133	7092.5779
134	7327.8533
135	7560.5503
136	7404.2455
137	7236.483
138	7268.195
139	7208.7518
140	7261.9884
141	6974.6389
142	7099.6732
143	7309.2165
144	7209.9967
145	7209.475
146	7219.0092
147	7111.5
148	7063.5689
149	7143.7348
150	6879.5901
151	7080.214
152	7015.8445
153	6979.794
154	6883.2037
155	6984.1398
156	7104.1894
157	6796.2927
158	6937.1361
159	7093.3435
160	7199.9678
161	7205.7318
162	7284.2578
163	7104.6888
164	6922.4155
165	7079.9332
166	7158.0986
167	7032.456
168	6818.1904
169	7023.9205
170	6470.4147
171	7201.413
172	6829.6272
173	6835.7577
174	6721.1663
175	6696.7955
176	6711.1485
177	7042.6663
178	6629.0854
179	6877.9064
180	7023.8974
181	7099.6587
182	6672.5801
183	6986.8632
184	6848.1551
185	7098.9024
186	6801.4237
187	6639.1323
188	7011.7718
189	6992.3999
190	6821.3074
191	7002.6923
192	6785.7789
193	6581.213
194	6904.7795
195	6828.2366
196	6618.9547
197	6750.8238
198	6809.3644
199	6558.1599
200	13852.3591
