Position	Value
-200	24197.1163
-199	48100.6481
-198	48120.8939
-197	48238.8531
-196	47910.8818
-195	48344.02
-194	48862.6434
-193	48279.125
-192	48594.9634
-191	48200.803
-190	48222.5258
-189	48365.8866
-188	48558.1062
-187	48474.8942
-186	48813.4595
-185	48591.9083
-184	48988.6154
-183	49581.8668
-182	48937.6415
-181	49352.7071
-180	49572.7479
-179	48229.4229
-178	48817.1293
-177	49668.8269
-176	48884.2765
-175	48231.4255
-174	49319.8783
-173	48835.6384
-172	49278.5804
-171	48571.1983
-170	48694.8626
-169	49631.1337
-168	48971.8214
-167	49167.9595
-166	49373.6692
-165	49562.3742
-164	49255.2314
-163	49599.4068
-162	49102.0047
-161	49263.2355
-160	49263.0834
-159	50652.2378
-158	49653.7942
-157	50227.207
-156	50961.1869
-155	50180.8372
-154	49535.1019
-153	50251.3258
-152	50594.9962
-151	50762.7989
-150	50113.6101
-149	50659.7818
-148	50419.947
-147	51014.9958
-146	50813.4999
-145	51285.5601
-144	51582.1484
-143	50515.709
-142	50451.9342
-141	50394.2624
-140	51321.1798
-139	50862.9068
-138	50852.6134
-137	51253.6519
-136	50639.8195
-135	51681.9645
-134	50921.1654
-133	50425.7204
-132	52357.6733
-131	51510.7172
-130	52284.7466
-129	52759.3471
-128	52029.1124
-127	51939.3456
-126	52681.0432
-125	52259.4401
-124	52215.2337
-123	52375.1862
-122	51713.2246
-121	51872.8982
-120	52057.9802
-119	51112.0734
-118	51757.2126
-117	52031.9259
-116	51105.9483
-115	51568.5548
-114	51312.0205
-113	52328.1621
-112	51533.4858
-111	52062.6094
-110	52252.0656
-109	51900.7586
-108	52173.2562
-107	52103.1859
-106	51997.9586
-105	52431.6856
-104	51908.4218
-103	52500.5244
-102	53199.4394
-101	52502.2756
-100	53234.0519
-99	53762.9575
-98	53657.1052
-97	52887.3403
-96	53126.3717
-95	53713.991
-94	54042.3077
-93	54134.498
-92	54065.1669
-91	54724.1874
-90	53119.9843
-89	53942.6263
-88	54084.7048
-87	53674.9357
-86	53531.2787
-85	52448.7952
-84	53430.1755
-83	52112.3326
-82	52650.809
-81	53017.0611
-80	53040.3299
-79	53172.9857
-78	53263.1494
-77	54089.0523
-76	53709.1391
-75	54730.4348
-74	54574.9448
-73	54339.8039
-72	55080.7996
-71	54700.9984
-70	56057.7981
-69	56359.0699
-68	55732.9816
-67	56696.2283
-66	57916.0749
-65	57876.733
-64	57693.5117
-63	58090.9811
-62	58601.513
-61	58164.1937
-60	57541.0144
-59	57746.4965
-58	58619.6262
-57	57240.6338
-56	56559.11
-55	56903.3114
-54	55636.03
-53	56183.9041
-52	57544.4981
-51	56597.0982
-50	56581.1738
-49	56459.3051
-48	56822.0777
-47	56834.8178
-46	55963.4393
-45	56528.5341
-44	55483.9876
-43	56362.7997
-42	57446.5897
-41	56429.3774
-40	56647.5576
-39	56192.5765
-38	57460.2234
-37	57573.0134
-36	59277.1363
-35	59700.5353
-34	59741.1669
-33	60258.0381
-32	61739.9332
-31	62112.9741
-30	62571.4443
-29	59926.3028
-28	61276.3975
-27	61796.2314
-26	58213.4145
-25	55069.8683
-24	57244.6896
-23	59123.8934
-22	60409.6272
-21	62664.6915
-20	63900.2241
-19	64610.409
-18	65986.8627
-17	67749.355
-16	68369.1985
-15	69663.0009
-14	71677.8828
-13	73970.442
-12	77730.5565
-11	81387.285
-10	83202.4478
-9	87511.4509
-8	90619.1137
-7	95307.47
-6	101770.1417
-5	109555.1575
-4	120710.346
-3	135687.5838
-2	138215.1389
-1	142074.8395
0	605426.0413
1	142074.8395
2	138215.1389
3	135687.5838
4	120710.346
5	109555.1575
6	101770.1417
7	95307.47
8	90619.1137
9	87511.4509
10	83202.4478
11	81387.285
12	77730.5565
13	73970.442
14	71677.8828
15	69663.0009
16	68369.1985
17	67749.355
18	65986.8627
19	64610.409
20	63900.2241
21	62664.6915
22	60409.6272
23	59123.8934
24	57244.6896
25	55069.8683
26	58213.4145
27	61796.2314
28	61276.3975
29	59926.3028
30	62571.4443
31	62112.9741
32	61739.9332
33	60258.0381
34	59741.1669
35	59700.5353
36	59277.1363
37	57573.0134
38	57460.2234
39	56192.5765
40	56647.5576
41	56429.3774
42	57446.5897
43	56362.7997
44	55483.9876
45	56528.5341
46	55963.4393
47	56834.8178
48	56822.0777
49	56459.3051
50	56581.1738
51	56597.0982
52	57544.4981
53	56183.9041
54	55636.03
55	56903.3114
56	56559.11
57	57240.6338
58	58619.6262
59	57746.4965
60	57541.0144
61	58164.1937
62	58601.513
63	58090.9811
64	57693.5117
65	57876.733
66	57916.0749
67	56696.2283
68	55732.9816
69	56359.0699
70	56057.7981
71	54700.9984
72	55080.7996
73	54339.8039
74	54574.9448
75	54730.4348
76	53709.1391
77	54089.0523
78	53263.1494
79	53172.9857
80	53040.3299
81	53017.0611
82	52650.809
83	52112.3326
84	53430.1755
85	52448.7952
86	53531.2787
87	53674.9357
88	54084.7048
89	53942.6263
90	53119.9843
91	54724.1874
92	54065.1669
93	54134.498
94	54042.3077
95	53713.991
96	53126.3717
97	52887.3403
98	53657.1052
99	53762.9575
100	53234.0519
101	52502.2756
102	53199.4394
103	52500.5244
104	51908.4218
105	52431.6856
106	51997.9586
107	52103.1859
108	52173.2562
109	51900.7586
110	52252.0656
111	52062.6094
112	51533.4858
113	52328.1621
114	51312.0205
115	51568.5548
116	51105.9483
117	52031.9259
118	51757.2126
119	51112.0734
120	52057.9802
121	51872.8982
122	51713.2246
123	52375.1862
124	52215.2337
125	52259.4401
126	52681.0432
127	51939.3456
128	52029.1124
129	52759.3471
130	52284.7466
131	51510.7172
132	52357.6733
133	50425.7204
134	50921.1654
135	51681.9645
136	50639.8195
137	51253.6519
138	50852.6134
139	50862.9068
140	51321.1798
141	50394.2624
142	50451.9342
143	50515.709
144	51582.1484
145	51285.5601
146	50813.4999
147	51014.9958
148	50419.947
149	50659.7818
150	50113.6101
151	50762.7989
152	50594.9962
153	50251.3258
154	49535.1019
155	50180.8372
156	50961.1869
157	50227.207
158	49653.7942
159	50652.2378
160	49263.0834
161	49263.2355
162	49102.0047
163	49599.4068
164	49255.2314
165	49562.3742
166	49373.6692
167	49167.9595
168	48971.8214
169	49631.1337
170	48694.8626
171	48571.1983
172	49278.5804
173	48835.6384
174	49319.8783
175	48231.4255
176	48884.2765
177	49668.8269
178	48817.1293
179	48229.4229
180	49572.7479
181	49352.7071
182	48937.6415
183	49581.8668
184	48988.6154
185	48591.9083
186	48813.4595
187	48474.8942
188	48558.1062
189	48365.8866
190	48222.5258
191	48200.803
192	48594.9634
193	48279.125
194	48862.6434
195	48344.02
196	47910.8818
197	48238.8531
198	48120.8939
199	48100.6481
200	24197.1163
