Position	Value
-200	258049.9135
-199	129279.6389
-198	129918.8548
-197	129837.5055
-196	129788.5453
-195	130214.4107
-194	130224.8732
-193	131458.2553
-192	130602.6145
-191	130141.8918
-190	131260.7744
-189	130445.1416
-188	131751.7301
-187	131352.9381
-186	131496.2201
-185	132050.5913
-184	132460.9148
-183	132373.196
-182	131161.6888
-181	133495.4261
-180	132664.1872
-179	129801.8117
-178	131498.8328
-177	133564.6442
-176	129781.9342
-175	131920.0278
-174	132444.8349
-173	130736.6361
-172	131781.0791
-171	133096.8281
-170	130655.3304
-169	134583.9073
-168	133425.0019
-167	133861.1838
-166	133108.4121
-165	135127.5831
-164	133525.8477
-163	134461.8106
-162	135286.0433
-161	133476.9559
-160	135099.0065
-159	137019.5653
-158	135076.5746
-157	134022.1173
-156	137719.4319
-155	136248.78
-154	135419.8159
-153	136018.5473
-152	136825.4835
-151	135941.9499
-150	136823.6036
-149	136099.9481
-148	135010.9102
-147	136145.0542
-146	134060.0672
-145	135806.519
-144	136506.0858
-143	134719.9724
-142	136276.3492
-141	133915.4562
-140	136214.8885
-139	138193.3381
-138	137279.4257
-137	135990.6273
-136	137223.3907
-135	138861.7658
-134	137099.8692
-133	135827.179
-132	139746.6822
-131	138944.2056
-130	142353.4515
-129	140394.2964
-128	139761.2629
-127	141291.9584
-126	142063.7984
-125	140832.3267
-124	140977.9991
-123	141094.6044
-122	139724.5239
-121	138857.2798
-120	141368.5375
-119	138874.2472
-118	139067.7554
-117	138582.7354
-116	135742.9566
-115	138939.4893
-114	140142.5411
-113	139816.4707
-112	135661.0167
-111	139872.06
-110	140032.1783
-109	138267.0096
-108	140572.1569
-107	140071.1251
-106	140608.0997
-105	143065.0844
-104	140054.2202
-103	140923.2562
-102	144277.8393
-101	142976.7069
-100	144939.6802
-99	145710.9353
-98	146270.8964
-97	145208.153
-96	148058.5062
-95	147600.6299
-94	149640.5426
-93	147888.7529
-92	147515.4521
-91	145997.0219
-90	146373.2858
-89	145942.5133
-88	145112.4772
-87	144813.5573
-86	144981.7802
-85	141904.0571
-84	144765.9728
-83	139844.2516
-82	141139.9918
-81	143626.5331
-80	141844.7123
-79	142709.6832
-78	142587.5748
-77	146564.1078
-76	144670.7958
-75	146541.7954
-74	146670.9732
-73	146872.9634
-72	147190.6397
-71	147014.8123
-70	151446.5982
-69	154169.0145
-68	153810.2395
-67	154946.9872
-66	159097.5456
-65	159059.639
-64	157434.3079
-63	160533.6874
-62	159419.7366
-61	159174.1023
-60	158130.2233
-59	155431.1655
-58	157920.6437
-57	152895.8775
-56	150269.6057
-55	152097.9671
-54	149743.9724
-53	150548.9325
-52	152142.2431
-51	151313.3861
-50	148932.6973
-49	149423.481
-48	152340.9039
-47	150199.3777
-46	148813.5804
-45	150922.3344
-44	149173.4994
-43	151881.7429
-42	154584.0868
-41	152781.2359
-40	154494.9712
-39	154669.7392
-38	158252.118
-37	159715.8971
-36	166352.6005
-35	167272.1654
-34	171327.6457
-33	174107.1037
-32	177896.5354
-31	178003.0694
-30	180491.3511
-29	173594.5739
-28	164596.6562
-27	159349.6387
-26	157051.5742
-25	158227.1095
-24	159879.9088
-23	162137.6122
-22	160782.1671
-21	168428.2585
-20	171724.9659
-19	171861.0839
-18	176608.6663
-17	177336.4179
-16	174595.932
-15	179701.4604
-14	182779.6879
-13	191342.6283
-12	196917.2534
-11	201649.3433
-10	204603.7142
-9	216299.7522
-8	222138.5903
-7	228897.3356
-6	239060.8355
-5	253967.6774
-4	272662.786
-3	293053.8373
-2	251331.2202
-1	245125.6651
0	1279390.8642
1	245125.6651
2	251331.2202
3	293053.8373
4	272662.786
5	253967.6774
6	239060.8355
7	228897.3356
8	222138.5903
9	216299.7522
10	204603.7142
11	201649.3433
12	196917.2534
13	191342.6283
14	182779.6879
15	179701.4604
16	174595.932
17	177336.4179
18	176608.6663
19	171861.0839
20	171724.9659
21	168428.2585
22	160782.1671
23	162137.6122
24	159879.9088
25	158227.1095
26	157051.5742
27	159349.6387
28	164596.6562
29	173594.5739
30	180491.3511
31	178003.0694
32	177896.5354
33	174107.1037
34	171327.6457
35	167272.1654
36	166352.6005
37	159715.8971
38	158252.118
39	154669.7392
40	154494.9712
41	152781.2359
42	154584.0868
43	151881.7429
44	149173.4994
45	150922.3344
46	148813.5804
47	150199.3777
48	152340.9039
49	149423.481
50	148932.6973
51	151313.3861
52	152142.2431
53	150548.9325
54	149743.9724
55	152097.9671
56	150269.6057
57	152895.8775
58	157920.6437
59	155431.1655
60	158130.2233
61	159174.1023
62	159419.7366
63	160533.6874
64	157434.3079
65	159059.639
66	159097.5456
67	154946.9872
68	153810.2395
69	154169.0145
70	151446.5982
71	147014.8123
72	147190.6397
73	146872.9634
74	146670.9732
75	146541.7954
76	144670.7958
77	146564.1078
78	142587.5748
79	142709.6832
80	141844.7123
81	143626.5331
82	141139.9918
83	139844.2516
84	144765.9728
85	141904.0571
86	144981.7802
87	144813.5573
88	145112.4772
89	145942.5133
90	146373.2858
91	145997.0219
92	147515.4521
93	147888.7529
94	149640.5426
95	147600.6299
96	148058.5062
97	145208.153
98	146270.8964
99	145710.9353
100	144939.6802
101	142976.7069
102	144277.8393
103	140923.2562
104	140054.2202
105	143065.0844
106	140608.0997
107	140071.1251
108	140572.1569
109	138267.0096
110	140032.1783
111	139872.06
112	135661.0167
113	139816.4707
114	140142.5411
115	138939.4893
116	135742.9566
117	138582.7354
118	139067.7554
119	138874.2472
120	141368.5375
121	138857.2798
122	139724.5239
123	141094.6044
124	140977.9991
125	140832.3267
126	142063.7984
127	141291.9584
128	139761.2629
129	140394.2964
130	142353.4515
131	138944.2056
132	139746.6822
133	135827.179
134	137099.8692
135	138861.7658
136	137223.3907
137	135990.6273
138	137279.4257
139	138193.3381
140	136214.8885
141	133915.4562
142	136276.3492
143	134719.9724
144	136506.0858
145	135806.519
146	134060.0672
147	136145.0542
148	135010.9102
149	136099.9481
150	136823.6036
151	135941.9499
152	136825.4835
153	136018.5473
154	135419.8159
155	136248.78
156	137719.4319
157	134022.1173
158	135076.5746
159	137019.5653
160	135099.0065
161	133476.9559
162	135286.0433
163	134461.8106
164	133525.8477
165	135127.5831
166	133108.4121
167	133861.1838
168	133425.0019
169	134583.9073
170	130655.3304
171	133096.8281
172	131781.0791
173	130736.6361
174	132444.8349
175	131920.0278
176	129781.9342
177	133564.6442
178	131498.8328
179	129801.8117
180	132664.1872
181	133495.4261
182	131161.6888
183	132373.196
184	132460.9148
185	132050.5913
186	131496.2201
187	131352.9381
188	131751.7301
189	130445.1416
190	131260.7744
191	130141.8918
192	130602.6145
193	131458.2553
194	130224.8732
195	130214.4107
196	129788.5453
197	129837.5055
198	129918.8548
199	129279.6389
200	258049.9135
