Position	Value
-200	27029.9666
-199	53731.7408
-198	53382.1668
-197	53985.5525
-196	53642.6319
-195	54622.9723
-194	54160.9329
-193	54491.1858
-192	54345.4339
-191	54555.0803
-190	54269.2614
-189	54280.7644
-188	54828.5241
-187	54636.4
-186	54654.7577
-185	54603.3231
-184	55562.2159
-183	55247.8407
-182	54851.0658
-181	55694.7524
-180	55213.1625
-179	54786.8683
-178	54796.781
-177	55352.2191
-176	54885.6475
-175	54666.463
-174	55564.2921
-173	55361.3381
-172	55287.6911
-171	55668.7049
-170	54807.3545
-169	56395.7974
-168	55618.1743
-167	55890.6067
-166	55793.1806
-165	56034.1219
-164	55712.2489
-163	56023.1241
-162	56464.977
-161	55787.6595
-160	55926.7324
-159	56938.7824
-158	55919.2545
-157	55474.3611
-156	56930.0686
-155	56371.5611
-154	56524.059
-153	55604.4019
-152	56557.81
-151	56685.6835
-150	55944.9432
-149	56224.2279
-148	56063.042
-147	55897.233
-146	55661.9242
-145	55918.2236
-144	55866.7968
-143	56018.2291
-142	55168.1537
-141	55509.5681
-140	56123.6902
-139	56327.37
-138	56052.4952
-137	56332.8856
-136	56792.2936
-135	56750.9038
-134	56497.5647
-133	55827.2755
-132	57811.1109
-131	57575.664
-130	58337.5566
-129	57729.2749
-128	57946.925
-127	58466.1533
-126	59168.1475
-125	57837.1941
-124	57881.4398
-123	58242.2628
-122	57756.1911
-121	57502.9256
-120	58200.3391
-119	57808.6632
-118	57613.5552
-117	57226.0188
-116	56863.7241
-115	56958.2616
-114	57926.7754
-113	57448.4683
-112	57015.981
-111	57986.2856
-110	58217.9158
-109	57551.8247
-108	58259.2943
-107	58774.2812
-106	58368.8562
-105	57604.3539
-104	57342.2017
-103	57777.1088
-102	58671.7777
-101	58689.3939
-100	59025.2163
-99	59499.9079
-98	59827.3768
-97	59104.0106
-96	60793.4551
-95	60344.3865
-94	60496.7765
-93	61521.3221
-92	60356.2101
-91	60565.8863
-90	60047.321
-89	59574.6606
-88	60292.7985
-87	59634.7982
-86	60069.3079
-85	58297.6373
-84	58696.2245
-83	57637.7693
-82	58457.8452
-81	58691.8182
-80	58654.8068
-79	59187.0068
-78	58638.1602
-77	60032.0232
-76	59669.9266
-75	59913.1116
-74	59253.3519
-73	59369.0036
-72	60065.5566
-71	60398.6143
-70	61823.7454
-69	61953.252
-68	61289.5615
-67	62027.5511
-66	64164.8277
-65	64115.1508
-64	63409.4838
-63	65176.3567
-62	65097.6482
-61	63726.4556
-60	63967.9047
-59	64521.8817
-58	65309.2128
-57	63510.4366
-56	62587.9557
-55	62279.8594
-54	61743.2457
-53	62223.6989
-52	62040.8006
-51	61726.8413
-50	61134.9471
-49	61168.4882
-48	61883.1961
-47	61215.2373
-46	60989.3756
-45	61091.8569
-44	60240.0461
-43	61595.7766
-42	62436.2579
-41	61820.0897
-40	61720.2634
-39	62529.2823
-38	62706.8189
-37	63172.9472
-36	65356.9686
-35	65728.5254
-34	65892.4718
-33	68124.5321
-32	67643.066
-31	67315.5318
-30	72273.5501
-29	70216.2663
-28	67031.7268
-27	62827.1192
-26	62521.6877
-25	61064.6486
-24	61584.9911
-23	63026.0684
-22	64425.7445
-21	68171.9214
-20	69141.277
-19	70268.5782
-18	70780.2343
-17	72429.1023
-16	71612.4122
-15	72871.0409
-14	73299.0068
-13	76829.5834
-12	80932.2557
-11	82133.3375
-10	82703.8937
-9	87138.6844
-8	88323.4167
-7	92796.5634
-6	95595.8821
-5	103359.7486
-4	112666.5006
-3	123473.0888
-2	122542.9051
-1	126867.4361
0	551116.082
1	126867.4361
2	122542.9051
3	123473.0888
4	112666.5006
5	103359.7486
6	95595.8821
7	92796.5634
8	88323.4167
9	87138.6844
10	82703.8937
11	82133.3375
12	80932.2557
13	76829.5834
14	73299.0068
15	72871.0409
16	71612.4122
17	72429.1023
18	70780.2343
19	70268.5782
20	69141.277
21	68171.9214
22	64425.7445
23	63026.0684
24	61584.9911
25	61064.6486
26	62521.6877
27	62827.1192
28	67031.7268
29	70216.2663
30	72273.5501
31	67315.5318
32	67643.066
33	68124.5321
34	65892.4718
35	65728.5254
36	65356.9686
37	63172.9472
38	62706.8189
39	62529.2823
40	61720.2634
41	61820.0897
42	62436.2579
43	61595.7766
44	60240.0461
45	61091.8569
46	60989.3756
47	61215.2373
48	61883.1961
49	61168.4882
50	61134.9471
51	61726.8413
52	62040.8006
53	62223.6989
54	61743.2457
55	62279.8594
56	62587.9557
57	63510.4366
58	65309.2128
59	64521.8817
60	63967.9047
61	63726.4556
62	65097.6482
63	65176.3567
64	63409.4838
65	64115.1508
66	64164.8277
67	62027.5511
68	61289.5615
69	61953.252
70	61823.7454
71	60398.6143
72	60065.5566
73	59369.0036
74	59253.3519
75	59913.1116
76	59669.9266
77	60032.0232
78	58638.1602
79	59187.0068
80	58654.8068
81	58691.8182
82	58457.8452
83	57637.7693
84	58696.2245
85	58297.6373
86	60069.3079
87	59634.7982
88	60292.7985
89	59574.6606
90	60047.321
91	60565.8863
92	60356.2101
93	61521.3221
94	60496.7765
95	60344.3865
96	60793.4551
97	59104.0106
98	59827.3768
99	59499.9079
100	59025.2163
101	58689.3939
102	58671.7777
103	57777.1088
104	57342.2017
105	57604.3539
106	58368.8562
107	58774.2812
108	58259.2943
109	57551.8247
110	58217.9158
111	57986.2856
112	57015.981
113	57448.4683
114	57926.7754
115	56958.2616
116	56863.7241
117	57226.0188
118	57613.5552
119	57808.6632
120	58200.3391
121	57502.9256
122	57756.1911
123	58242.2628
124	57881.4398
125	57837.1941
126	59168.1475
127	58466.1533
128	57946.925
129	57729.2749
130	58337.5566
131	57575.664
132	57811.1109
133	55827.2755
134	56497.5647
135	56750.9038
136	56792.2936
137	56332.8856
138	56052.4952
139	56327.37
140	56123.6902
141	55509.5681
142	55168.1537
143	56018.2291
144	55866.7968
145	55918.2236
146	55661.9242
147	55897.233
148	56063.042
149	56224.2279
150	55944.9432
151	56685.6835
152	56557.81
153	55604.4019
154	56524.059
155	56371.5611
156	56930.0686
157	55474.3611
158	55919.2545
159	56938.7824
160	55926.7324
161	55787.6595
162	56464.977
163	56023.1241
164	55712.2489
165	56034.1219
166	55793.1806
167	55890.6067
168	55618.1743
169	56395.7974
170	54807.3545
171	55668.7049
172	55287.6911
173	55361.3381
174	55564.2921
175	54666.463
176	54885.6475
177	55352.2191
178	54796.781
179	54786.8683
180	55213.1625
181	55694.7524
182	54851.0658
183	55247.8407
184	55562.2159
185	54603.3231
186	54654.7577
187	54636.4
188	54828.5241
189	54280.7644
190	54269.2614
191	54555.0803
192	54345.4339
193	54491.1858
194	54160.9329
195	54622.9723
196	53642.6319
197	53985.5525
198	53382.1668
199	53731.7408
200	27029.9666
