Position	Value
-200	145358.9429
-199	71687.1075
-198	72147.3092
-197	72335.3365
-196	71976.971
-195	73055.7142
-194	72480.5419
-193	72725.9867
-192	72899.9156
-191	72529.0666
-190	73269.0076
-189	72721.1848
-188	74015.0934
-187	73819.8828
-186	72471.6783
-185	73633.7005
-184	73569.5865
-183	73658.8067
-182	72127.706
-181	74191.5425
-180	74059.8939
-179	72191.4495
-178	72395.7525
-177	74479.3292
-176	72344.1302
-175	72387.1533
-174	74276.5167
-173	72951.3663
-172	74043.029
-171	73563.1063
-170	72915.0356
-169	75582.8414
-168	74884.0704
-167	74328.8499
-166	74482.3563
-165	75698.955
-164	74752.0597
-163	75495.4343
-162	75613.3813
-161	73915.6339
-160	74704.8577
-159	76730.6197
-158	75793.8467
-157	74900.3219
-156	76915.5299
-155	75393.4361
-154	75931.4044
-153	76088.0061
-152	77207.9234
-151	75514.7695
-150	77017.6801
-149	76257.5312
-148	74899.3669
-147	76893.3608
-146	75071.839
-145	76414.3746
-144	75503.6745
-143	75185.3387
-142	76811.2185
-141	74496.5912
-140	76727.4174
-139	76129.7484
-138	76200.3718
-137	76234.9763
-136	76860.4545
-135	77557.4571
-134	76899.8519
-133	76648.3657
-132	78221.1426
-131	78728.4066
-130	81186.032
-129	79091.4986
-128	79178.7334
-127	79252.6982
-126	79685.95
-125	79362.1145
-124	78697.6268
-123	78851.1016
-122	77809.5126
-121	77367.7842
-120	79048.6925
-119	77619.1536
-118	77859.2791
-117	76348.0955
-116	76026.7607
-115	77514.8183
-114	77462.1618
-113	78388.2989
-112	76644.2831
-111	78501.6971
-110	78614.7518
-109	78301.2978
-108	78594.0329
-107	78252.9615
-106	78139.4157
-105	80088.5664
-104	77728.9757
-103	78127.8337
-102	81441.7067
-101	80061.5635
-100	81329.3585
-99	82233.6436
-98	82705.5358
-97	81425.2397
-96	82794.1728
-95	82777.0736
-94	83823.133
-93	83184.6461
-92	82736.7598
-91	82964.4632
-90	81856.7519
-89	82093.4298
-88	81522.1301
-87	80688.4425
-86	81633.4108
-85	78862.7474
-84	80891.772
-83	78109.9644
-82	78723.7501
-81	80679.4009
-80	79710.1192
-79	80486.9692
-78	80051.8658
-77	82245.4728
-76	81205.1446
-75	82906.5886
-74	82708.0824
-73	82652.6666
-72	83532.4501
-71	82950.4051
-70	85819.9118
-69	87282.1899
-68	86892.1484
-67	87577.4239
-66	89806.4846
-65	90482.6061
-64	89754.8951
-63	91368.724
-62	90795.4927
-61	90939.6737
-60	89453.806
-59	88972.7233
-58	90011.455
-57	87143.9275
-56	84482.5667
-55	85093.9258
-54	85029.4906
-53	85771.2934
-52	86463.1123
-51	85196.4647
-50	83464.6011
-49	83813.4167
-48	86462.2604
-47	84552.8929
-46	83620.0849
-45	84847.3192
-44	83760.3144
-43	85705.2903
-42	87234.1992
-41	86740.3316
-40	87719.5634
-39	87889.018
-38	90141.8022
-37	91986.7077
-36	95019.9047
-35	95221.8166
-34	97975.3702
-33	99910.0202
-32	101532.769
-31	101159.2972
-30	103686.2444
-29	98649.7163
-28	93866.179
-27	89526.4425
-26	88968.571
-25	88552.4237
-24	90171.7758
-23	92326.468
-22	91823.5961
-21	95114.7463
-20	97029.2748
-19	97903.238
-18	101337.9422
-17	101186.0484
-16	98880.4474
-15	102570.6078
-14	104987.252
-13	109232.3752
-12	113316.481
-11	117777.1453
-10	119800.2156
-9	126788.8991
-8	131635.1726
-7	137662.0763
-6	143336.0555
-5	155040.7065
-4	166699.5393
-3	182666.0784
-2	160731.059
-1	158439.68
0	873649.6389
1	158439.68
2	160731.059
3	182666.0784
4	166699.5393
5	155040.7065
6	143336.0555
7	137662.0763
8	131635.1726
9	126788.8991
10	119800.2156
11	117777.1453
12	113316.481
13	109232.3752
14	104987.252
15	102570.6078
16	98880.4474
17	101186.0484
18	101337.9422
19	97903.238
20	97029.2748
21	95114.7463
22	91823.5961
23	92326.468
24	90171.7758
25	88552.4237
26	88968.571
27	89526.4425
28	93866.179
29	98649.7163
30	103686.2444
31	101159.2972
32	101532.769
33	99910.0202
34	97975.3702
35	95221.8166
36	95019.9047
37	91986.7077
38	90141.8022
39	87889.018
40	87719.5634
41	86740.3316
42	87234.1992
43	85705.2903
44	83760.3144
45	84847.3192
46	83620.0849
47	84552.8929
48	86462.2604
49	83813.4167
50	83464.6011
51	85196.4647
52	86463.1123
53	85771.2934
54	85029.4906
55	85093.9258
56	84482.5667
57	87143.9275
58	90011.455
59	88972.7233
60	89453.806
61	90939.6737
62	90795.4927
63	91368.724
64	89754.8951
65	90482.6061
66	89806.4846
67	87577.4239
68	86892.1484
69	87282.1899
70	85819.9118
71	82950.4051
72	83532.4501
73	82652.6666
74	82708.0824
75	82906.5886
76	81205.1446
77	82245.4728
78	80051.8658
79	80486.9692
80	79710.1192
81	80679.4009
82	78723.7501
83	78109.9644
84	80891.772
85	78862.7474
86	81633.4108
87	80688.4425
88	81522.1301
89	82093.4298
90	81856.7519
91	82964.4632
92	82736.7598
93	83184.6461
94	83823.133
95	82777.0736
96	82794.1728
97	81425.2397
98	82705.5358
99	82233.6436
100	81329.3585
101	80061.5635
102	81441.7067
103	78127.8337
104	77728.9757
105	80088.5664
106	78139.4157
107	78252.9615
108	78594.0329
109	78301.2978
110	78614.7518
111	78501.6971
112	76644.2831
113	78388.2989
114	77462.1618
115	77514.8183
116	76026.7607
117	76348.0955
118	77859.2791
119	77619.1536
120	79048.6925
121	77367.7842
122	77809.5126
123	78851.1016
124	78697.6268
125	79362.1145
126	79685.95
127	79252.6982
128	79178.7334
129	79091.4986
130	81186.032
131	78728.4066
132	78221.1426
133	76648.3657
134	76899.8519
135	77557.4571
136	76860.4545
137	76234.9763
138	76200.3718
139	76129.7484
140	76727.4174
141	74496.5912
142	76811.2185
143	75185.3387
144	75503.6745
145	76414.3746
146	75071.839
147	76893.3608
148	74899.3669
149	76257.5312
150	77017.6801
151	75514.7695
152	77207.9234
153	76088.0061
154	75931.4044
155	75393.4361
156	76915.5299
157	74900.3219
158	75793.8467
159	76730.6197
160	74704.8577
161	73915.6339
162	75613.3813
163	75495.4343
164	74752.0597
165	75698.955
166	74482.3563
167	74328.8499
168	74884.0704
169	75582.8414
170	72915.0356
171	73563.1063
172	74043.029
173	72951.3663
174	74276.5167
175	72387.1533
176	72344.1302
177	74479.3292
178	72395.7525
179	72191.4495
180	74059.8939
181	74191.5425
182	72127.706
183	73658.8067
184	73569.5865
185	73633.7005
186	72471.6783
187	73819.8828
188	74015.0934
189	72721.1848
190	73269.0076
191	72529.0666
192	72899.9156
193	72725.9867
194	72480.5419
195	73055.7142
196	71976.971
197	72335.3365
198	72147.3092
199	71687.1075
200	145358.9429
