Position	Value
-200	0.389033
-199	0.383454
-198	0.488593
-197	0.642386
-196	0.318478
-195	0.10513
-194	0.606036
-193	0.0525565
-192	0.00588646
-191	0.0714671
-190	1.70013
-189	0.240163
-188	1.15641
-187	1.36593
-186	0.613645
-185	0.28521
-184	0.273018
-183	0.42799
-182	0.0345198
-181	0.00182291
-180	0.0548693
-179	0.165372
-178	0.0673139
-177	0.297631
-176	1.01423
-175	0.432219
-174	0.194445
-173	0.148173
-172	0.0606425
-171	0.101055
-170	0.060566
-169	1.00108
-168	0.050112
-167	0.210258
-166	0.286583
-165	0.711666
-164	0.373989
-163	0.376484
-162	0.289386
-161	0.253176
-160	0.384913
-159	0.229876
-158	0.204974
-157	1.36268
-156	0.538299
-155	0.713723
-154	0.36987
-153	0.414638
-152	1.44062
-151	0.166888
-150	0.250884
-149	0.158297
-148	0.183695
-147	0.218575
-146	0.166701
-145	0.111019
-144	0.304783
-143	1.34356
-142	1.50165
-141	0.78374
-140	0.174552
-139	0.0529118
-138	0.0820728
-137	0.0314511
-136	0.0557848
-135	0.18467
-134	0.144139
-133	0.519026
-132	0.938865
-131	1.3643
-130	0.300628
-129	0.139705
-128	0.169877
-127	0.661348
-126	0.532156
-125	1.5862
-124	0.915669
-123	0.435742
-122	0.40502
-121	0.573044
-120	0.374793
-119	0.258279
-118	1.00044
-117	0.109121
-116	0.12571
-115	0.096
-114	0.35898
-113	0.72959
-112	0.766763
-111	0.770738
-110	0.553505
-109	1.38081
-108	1.60167
-107	1.21764
-106	1.15527
-105	0.000197579
-104	0.0556318
-103	0.216621
-102	0.412574
-101	0.851256
-100	0.542455
-99	0.72094
-98	0.510385
-97	0.318331
-96	0.258249
-95	0.16125
-94	0.200163
-93	0.112441
-92	1.15622
-91	1.34396
-90	1.7053
-89	1.51021
-88	0.784266
-87	0.852184
-86	1.211
-85	0.549794
-84	0.333637
-83	0.361309
-82	0.106479
-81	0.108032
-80	0.158731
-79	0.0858755
-78	0.269499
-77	0.910836
-76	0.370567
-75	0.476017
-74	0.481438
-73	1.42194
-72	0.203853
-71	0.234218
-70	0.198835
-69	0.239687
-68	0.360413
-67	0.55981
-66	0.361632
-65	0.462183
-64	0.575381
-63	0.422204
-62	1.26612
-61	1.1654
-60	1.31066
-59	0.472213
-58	0.428848
-57	0.727403
-56	1.79945
-55	1.20534
-54	0.922944
-53	0.387915
-52	0.339473
-51	0.433524
-50	0.770799
-49	1.24482
-48	0.238944
-47	0.487503
-46	0.660894
-45	0.540916
-44	0.512805
-43	0.502891
-42	0.484678
-41	0.264449
-40	0.333545
-39	1.31625
-38	0.329957
-37	0.322987
-36	0.225794
-35	1.19901
-34	1.13532
-33	1.08771
-32	1.7365
-31	0.633532
-30	0.768451
-29	1.04782
-28	0.0565863
-27	0.128111
-26	0.316089
-25	1.09489
-24	1.10005
-23	2.35907
-22	1.09796
-21	1.66336
-20	0.495839
-19	0.257016
-18	0.555556
-17	0.219298
-16	0.506562
-15	0.364244
-14	0.479866
-13	0.810822
-12	1.79097
-11	1.94678
-10	1.52731
-9	0.87271
-8	1.78778
-7	0.644172
-6	0.241525
-5	1.67649
-4	3.23036
-3	5.31359
-2	18.3408
-1	37.0242
0	1190.63
1	37.0242
2	18.3408
3	5.31359
4	3.23036
5	1.67649
6	0.241525
7	0.644172
8	1.78778
9	0.87271
10	1.52731
11	1.94678
12	1.79097
13	0.810822
14	0.479866
15	0.364244
16	0.506562
17	0.219298
18	0.555556
19	0.257016
20	0.495839
21	1.66336
22	1.09796
23	2.35907
24	1.10005
25	1.09489
26	0.316089
27	0.128111
28	0.0565863
29	1.04782
30	0.768451
31	0.633532
32	1.7365
33	1.08771
34	1.13532
35	1.19901
36	0.225794
37	0.322987
38	0.329957
39	1.31625
40	0.333545
41	0.264449
42	0.484678
43	0.502891
44	0.512805
45	0.540916
46	0.660894
47	0.487503
48	0.238944
49	1.24482
50	0.770799
51	0.433524
52	0.339473
53	0.387915
54	0.922944
55	1.20534
56	1.79945
57	0.727403
58	0.428848
59	0.472213
60	1.31066
61	1.1654
62	1.26612
63	0.422204
64	0.575381
65	0.462183
66	0.361632
67	0.55981
68	0.360413
69	0.239687
70	0.198835
71	0.234218
72	0.203853
73	1.42194
74	0.481438
75	0.476017
76	0.370567
77	0.910836
78	0.269499
79	0.0858755
80	0.158731
81	0.108032
82	0.106479
83	0.361309
84	0.333637
85	0.549794
86	1.211
87	0.852184
88	0.784266
89	1.51021
90	1.7053
91	1.34396
92	1.15622
93	0.112441
94	0.200163
95	0.16125
96	0.258249
97	0.318331
98	0.510385
99	0.72094
100	0.542455
101	0.851256
102	0.412574
103	0.216621
104	0.0556318
105	0.000197579
106	1.15527
107	1.21764
108	1.60167
109	1.38081
110	0.553505
111	0.770738
112	0.766763
113	0.72959
114	0.35898
115	0.096
116	0.12571
117	0.109121
118	1.00044
119	0.258279
120	0.374793
121	0.573044
122	0.40502
123	0.435742
124	0.915669
125	1.5862
126	0.532156
127	0.661348
128	0.169877
129	0.139705
130	0.300628
131	1.3643
132	0.938865
133	0.519026
134	0.144139
135	0.18467
136	0.0557848
137	0.0314511
138	0.0820728
139	0.0529118
140	0.174552
141	0.78374
142	1.50165
143	1.34356
144	0.304783
145	0.111019
146	0.166701
147	0.218575
148	0.183695
149	0.158297
150	0.250884
151	0.166888
152	1.44062
153	0.414638
154	0.36987
155	0.713723
156	0.538299
157	1.36268
158	0.204974
159	0.229876
160	0.384913
161	0.253176
162	0.289386
163	0.376484
164	0.373989
165	0.711666
166	0.286583
167	0.210258
168	0.050112
169	1.00108
170	0.060566
171	0.101055
172	0.0606425
173	0.148173
174	0.194445
175	0.432219
176	1.01423
177	0.297631
178	0.0673139
179	0.165372
180	0.0548693
181	0.00182291
182	0.0345198
183	0.42799
184	0.273018
185	0.28521
186	0.613645
187	1.36593
188	1.15641
189	0.240163
190	1.70013
191	0.0714671
192	0.00588646
193	0.0525565
194	0.606036
195	0.10513
196	0.318478
197	0.642386
198	0.488593
199	0.383454
200	0.389033
