Position	Value
-200	14532.9092
-199	28012.552
-198	28305.573
-197	28298.5813
-196	28659.2583
-195	28863.9583
-194	29096.8043
-193	29056.3193
-192	28970.2578
-191	28841.8009
-190	29038.3477
-189	28951.0949
-188	28899.6528
-187	28504.8458
-186	28260.9883
-185	28524.8661
-184	29142.3219
-183	28871.5666
-182	28453.2694
-181	29505.8285
-180	28481.6604
-179	28404.9041
-178	28309.4766
-177	29180.2013
-176	28852.2664
-175	28572.2334
-174	28919.9263
-173	29275.6616
-172	28832.562
-171	29174.2706
-170	29131.1724
-169	29198.8286
-168	28682.1695
-167	28895.2095
-166	28847.953
-165	29196.8955
-164	28646.9778
-163	29742.1207
-162	29304.9063
-161	28815.8182
-160	29841.3064
-159	29340.0154
-158	29108.3383
-157	28848.2195
-156	30000.1549
-155	29121.4572
-154	28862.2024
-153	28984.8338
-152	28708.8803
-151	28842.3952
-150	28336.2155
-149	28689.2122
-148	29269.2479
-147	29057.2648
-146	29043.3066
-145	29650.7968
-144	29312.0675
-143	29588.3029
-142	29018.8603
-141	28829.2423
-140	29533.3761
-139	29123.6422
-138	29248.9234
-137	29164.2528
-136	29814.4919
-135	29899.6983
-134	29634.2959
-133	29309.8537
-132	30303.1125
-131	30239.7385
-130	30245.5599
-129	31085.6434
-128	30200.0886
-127	30276.6998
-126	30338.0862
-125	30039.6431
-124	29857.1525
-123	29863.3331
-122	29899.9202
-121	29276.9161
-120	30380.2321
-119	29626.8918
-118	29615.9276
-117	29167.892
-116	28614.8563
-115	29812.2058
-114	30188.2621
-113	29908.497
-112	29132.4074
-111	29963.1729
-110	29753.3556
-109	29414.9264
-108	30501.5519
-107	30312.2816
-106	30101.6759
-105	30732.2818
-104	30105.7616
-103	30143.5802
-102	30783.864
-101	30920.238
-100	31011.3402
-99	31380.2455
-98	31613.6458
-97	30921.1983
-96	31489.5778
-95	31418.4275
-94	31015.782
-93	30857.4289
-92	30561.8652
-91	30624.5531
-90	30322.1836
-89	30925.5344
-88	30398.7042
-87	30711.4654
-86	30946.0357
-85	29722.5819
-84	30292.9586
-83	28986.5559
-82	29684.307
-81	30940.9864
-80	29768.6061
-79	30264.1317
-78	29844.1541
-77	30934.6156
-76	30279.1679
-75	30797.5116
-74	30258.4093
-73	29888.5798
-72	31123.0823
-71	31197.4425
-70	32006.2593
-69	32616.8329
-68	32799.9486
-67	32382.4433
-66	33638.6053
-65	33583.48
-64	33236.9311
-63	34233.1319
-62	33469.0186
-61	33898.5352
-60	32569.5037
-59	33023.8299
-58	33637.9191
-57	32146.4385
-56	32108.7739
-55	32214.8828
-54	31927.2079
-53	31517.395
-52	32068.2532
-51	32100.7431
-50	31698.1212
-49	31858.6154
-48	32293.4212
-47	31366.5891
-46	31838.5953
-45	31351.6822
-44	31162.5751
-43	32249.8207
-42	32191.9141
-41	32175.3784
-40	32234.1226
-39	32128.7374
-38	33043.8964
-37	33213.181
-36	34075.4737
-35	34814.1797
-34	34851.761
-33	36029.0771
-32	36490.543
-31	36482.3725
-30	36773.1946
-29	34139.3306
-28	32706.3807
-27	31284.0084
-26	31946.7938
-25	31956.856
-24	32140.6934
-23	33280.0102
-22	34025.4301
-21	35941.424
-20	36704.6811
-19	36954.4928
-18	37809.6527
-17	38149.9898
-16	37989.2178
-15	38690.5767
-14	40122.0751
-13	40622.2588
-12	42775.1648
-11	44156.5908
-10	43451.6546
-9	45691.2351
-8	46468.1486
-7	49072.4151
-6	50575.6043
-5	54041.2821
-4	60882.4569
-3	69543.3438
-2	62363.7849
-1	67486.2457
0	366342.8759
1	67486.2457
2	62363.7849
3	69543.3438
4	60882.4569
5	54041.2821
6	50575.6043
7	49072.4151
8	46468.1486
9	45691.2351
10	43451.6546
11	44156.5908
12	42775.1648
13	40622.2588
14	40122.0751
15	38690.5767
16	37989.2178
17	38149.9898
18	37809.6527
19	36954.4928
20	36704.6811
21	35941.424
22	34025.4301
23	33280.0102
24	32140.6934
25	31956.856
26	31946.7938
27	31284.0084
28	32706.3807
29	34139.3306
30	36773.1946
31	36482.3725
32	36490.543
33	36029.0771
34	34851.761
35	34814.1797
36	34075.4737
37	33213.181
38	33043.8964
39	32128.7374
40	32234.1226
41	32175.3784
42	32191.9141
43	32249.8207
44	31162.5751
45	31351.6822
46	31838.5953
47	31366.5891
48	32293.4212
49	31858.6154
50	31698.1212
51	32100.7431
52	32068.2532
53	31517.395
54	31927.2079
55	32214.8828
56	32108.7739
57	32146.4385
58	33637.9191
59	33023.8299
60	32569.5037
61	33898.5352
62	33469.0186
63	34233.1319
64	33236.9311
65	33583.48
66	33638.6053
67	32382.4433
68	32799.9486
69	32616.8329
70	32006.2593
71	31197.4425
72	31123.0823
73	29888.5798
74	30258.4093
75	30797.5116
76	30279.1679
77	30934.6156
78	29844.1541
79	30264.1317
80	29768.6061
81	30940.9864
82	29684.307
83	28986.5559
84	30292.9586
85	29722.5819
86	30946.0357
87	30711.4654
88	30398.7042
89	30925.5344
90	30322.1836
91	30624.5531
92	30561.8652
93	30857.4289
94	31015.782
95	31418.4275
96	31489.5778
97	30921.1983
98	31613.6458
99	31380.2455
100	31011.3402
101	30920.238
102	30783.864
103	30143.5802
104	30105.7616
105	30732.2818
106	30101.6759
107	30312.2816
108	30501.5519
109	29414.9264
110	29753.3556
111	29963.1729
112	29132.4074
113	29908.497
114	30188.2621
115	29812.2058
116	28614.8563
117	29167.892
118	29615.9276
119	29626.8918
120	30380.2321
121	29276.9161
122	29899.9202
123	29863.3331
124	29857.1525
125	30039.6431
126	30338.0862
127	30276.6998
128	30200.0886
129	31085.6434
130	30245.5599
131	30239.7385
132	30303.1125
133	29309.8537
134	29634.2959
135	29899.6983
136	29814.4919
137	29164.2528
138	29248.9234
139	29123.6422
140	29533.3761
141	28829.2423
142	29018.8603
143	29588.3029
144	29312.0675
145	29650.7968
146	29043.3066
147	29057.2648
148	29269.2479
149	28689.2122
150	28336.2155
151	28842.3952
152	28708.8803
153	28984.8338
154	28862.2024
155	29121.4572
156	30000.1549
157	28848.2195
158	29108.3383
159	29340.0154
160	29841.3064
161	28815.8182
162	29304.9063
163	29742.1207
164	28646.9778
165	29196.8955
166	28847.953
167	28895.2095
168	28682.1695
169	29198.8286
170	29131.1724
171	29174.2706
172	28832.562
173	29275.6616
174	28919.9263
175	28572.2334
176	28852.2664
177	29180.2013
178	28309.4766
179	28404.9041
180	28481.6604
181	29505.8285
182	28453.2694
183	28871.5666
184	29142.3219
185	28524.8661
186	28260.9883
187	28504.8458
188	28899.6528
189	28951.0949
190	29038.3477
191	28841.8009
192	28970.2578
193	29056.3193
194	29096.8043
195	28863.9583
196	28659.2583
197	28298.5813
198	28305.573
199	28012.552
200	14532.9092
