Position	Value
-200	6232.5807
-199	12632.5266
-198	12709.0097
-197	12679.6679
-196	12737.0809
-195	12538.0349
-194	12732.8451
-193	12599.9265
-192	12496.2966
-191	12604.9779
-190	12663.3998
-189	12614.708
-188	12857.5048
-187	12911.711
-186	12679.9735
-185	12977.6729
-184	12996.6121
-183	13083.5452
-182	12701.9046
-181	13000.374
-180	12724.1246
-179	12414.2889
-178	12623.6986
-177	12804.1014
-176	12752.4272
-175	12431.9951
-174	12817.7361
-173	12861.2942
-172	12972.7588
-171	12596.0611
-170	12434.6308
-169	12862.0638
-168	12701.1464
-167	12994.3167
-166	13328.8473
-165	13118.7273
-164	12818.2866
-163	13026.9157
-162	12906.0313
-161	13141.9586
-160	12939.2896
-159	12978.2133
-158	12947.559
-157	13127.224
-156	13076.5007
-155	13027.7783
-154	13181.8101
-153	13093.6324
-152	13247.025
-151	13064.0601
-150	12949.5029
-149	13364.537
-148	13156.1172
-147	13445.1895
-146	13511.9019
-145	13892.8811
-144	13604.1029
-143	13662.7115
-142	13535.6491
-141	13324.2257
-140	13407.7621
-139	13525.0485
-138	13241.5451
-137	13782.7038
-136	13603.3078
-135	13920.709
-134	13982.6276
-133	13641.9953
-132	14176.1211
-131	14051.9157
-130	14023.2092
-129	14147.5459
-128	14235.985
-127	13933.7239
-126	14033.8929
-125	14092.2277
-124	13778.2761
-123	14133.6505
-122	14007.3657
-121	13974.6687
-120	14011.1086
-119	13577.955
-118	13271.9568
-117	14050.867
-116	13691.0754
-115	13686.6336
-114	13934.3091
-113	13923.6541
-112	13687.8437
-111	13759.1877
-110	13572.8331
-109	13809.9773
-108	13754.1811
-107	13838.1561
-106	13537.9851
-105	13969.7328
-104	13778.8007
-103	13839.9572
-102	13926.7489
-101	13981.6345
-100	14060.1165
-99	14656.9975
-98	14335.6813
-97	14078.7959
-96	14298.7057
-95	14764.3483
-94	14524.6925
-93	14395.9964
-92	14298.019
-91	14393.5438
-90	14174.3061
-89	14444.9359
-88	14350.6242
-87	14285.3548
-86	14184.0417
-85	13892.55
-84	14310.9261
-83	13900.008
-82	13972.3988
-81	13947.6817
-80	13923.8519
-79	14027.5819
-78	14002.6002
-77	14133.7685
-76	14327.6509
-75	14413.5724
-74	14736.5483
-73	14364.3031
-72	14482.0481
-71	14618.4971
-70	15290.594
-69	15275.9869
-68	15101.1489
-67	15050.0106
-66	15576.2893
-65	15406.3469
-64	15697.0693
-63	15876.2175
-62	15956.7884
-61	15899.491
-60	15575.4335
-59	15623.2183
-58	15600.8321
-57	15379.5841
-56	15446.5275
-55	15477.2337
-54	15399.0945
-53	15343.8966
-52	15920.5399
-51	15468.5833
-50	15667.3747
-49	15423.3488
-48	15582.0529
-47	15875.7812
-46	15261.5636
-45	15644.7994
-44	15214.2713
-43	15617.4366
-42	16006.0557
-41	15854.2775
-40	15791.3111
-39	15846.5759
-38	16089.1054
-37	16544.2978
-36	16822.1533
-35	17086.1618
-34	17223.5872
-33	17326.1662
-32	17987.4665
-31	17407.9849
-30	18093.2434
-29	17613.3785
-28	17496.976
-27	16884.7804
-26	16086.9735
-25	15558.7384
-24	15982.6635
-23	16753.128
-22	17309.645
-21	17770.0158
-20	18017.3507
-19	18520.2831
-18	19367.5292
-17	19637.8791
-16	19644.656
-15	20673.7157
-14	21333.8284
-13	22403.1071
-12	24495.8475
-11	25799.9006
-10	27469.3969
-9	29589.3801
-8	32200.1633
-7	35714.0038
-6	39666.244
-5	45797.0682
-4	53111.0744
-3	64221.0817
-2	69784.9645
-1	78267.1405
0	340456.6762
1	78267.1405
2	69784.9645
3	64221.0817
4	53111.0744
5	45797.0682
6	39666.244
7	35714.0038
8	32200.1633
9	29589.3801
10	27469.3969
11	25799.9006
12	24495.8475
13	22403.1071
14	21333.8284
15	20673.7157
16	19644.656
17	19637.8791
18	19367.5292
19	18520.2831
20	18017.3507
21	17770.0158
22	17309.645
23	16753.128
24	15982.6635
25	15558.7384
26	16086.9735
27	16884.7804
28	17496.976
29	17613.3785
30	18093.2434
31	17407.9849
32	17987.4665
33	17326.1662
34	17223.5872
35	17086.1618
36	16822.1533
37	16544.2978
38	16089.1054
39	15846.5759
40	15791.3111
41	15854.2775
42	16006.0557
43	15617.4366
44	15214.2713
45	15644.7994
46	15261.5636
47	15875.7812
48	15582.0529
49	15423.3488
50	15667.3747
51	15468.5833
52	15920.5399
53	15343.8966
54	15399.0945
55	15477.2337
56	15446.5275
57	15379.5841
58	15600.8321
59	15623.2183
60	15575.4335
61	15899.491
62	15956.7884
63	15876.2175
64	15697.0693
65	15406.3469
66	15576.2893
67	15050.0106
68	15101.1489
69	15275.9869
70	15290.594
71	14618.4971
72	14482.0481
73	14364.3031
74	14736.5483
75	14413.5724
76	14327.6509
77	14133.7685
78	14002.6002
79	14027.5819
80	13923.8519
81	13947.6817
82	13972.3988
83	13900.008
84	14310.9261
85	13892.55
86	14184.0417
87	14285.3548
88	14350.6242
89	14444.9359
90	14174.3061
91	14393.5438
92	14298.019
93	14395.9964
94	14524.6925
95	14764.3483
96	14298.7057
97	14078.7959
98	14335.6813
99	14656.9975
100	14060.1165
101	13981.6345
102	13926.7489
103	13839.9572
104	13778.8007
105	13969.7328
106	13537.9851
107	13838.1561
108	13754.1811
109	13809.9773
110	13572.8331
111	13759.1877
112	13687.8437
113	13923.6541
114	13934.3091
115	13686.6336
116	13691.0754
117	14050.867
118	13271.9568
119	13577.955
120	14011.1086
121	13974.6687
122	14007.3657
123	14133.6505
124	13778.2761
125	14092.2277
126	14033.8929
127	13933.7239
128	14235.985
129	14147.5459
130	14023.2092
131	14051.9157
132	14176.1211
133	13641.9953
134	13982.6276
135	13920.709
136	13603.3078
137	13782.7038
138	13241.5451
139	13525.0485
140	13407.7621
141	13324.2257
142	13535.6491
143	13662.7115
144	13604.1029
145	13892.8811
146	13511.9019
147	13445.1895
148	13156.1172
149	13364.537
150	12949.5029
151	13064.0601
152	13247.025
153	13093.6324
154	13181.8101
155	13027.7783
156	13076.5007
157	13127.224
158	12947.559
159	12978.2133
160	12939.2896
161	13141.9586
162	12906.0313
163	13026.9157
164	12818.2866
165	13118.7273
166	13328.8473
167	12994.3167
168	12701.1464
169	12862.0638
170	12434.6308
171	12596.0611
172	12972.7588
173	12861.2942
174	12817.7361
175	12431.9951
176	12752.4272
177	12804.1014
178	12623.6986
179	12414.2889
180	12724.1246
181	13000.374
182	12701.9046
183	13083.5452
184	12996.6121
185	12977.6729
186	12679.9735
187	12911.711
188	12857.5048
189	12614.708
190	12663.3998
191	12604.9779
192	12496.2966
193	12599.9265
194	12732.8451
195	12538.0349
196	12737.0809
197	12679.6679
198	12709.0097
199	12632.5266
200	6232.5807
