Position	Value
-200	74252.4329
-199	146429.6919
-198	147494.9454
-197	148748.7612
-196	147886.7367
-195	148689.2689
-194	149080.6477
-193	148296.3057
-192	149634.9812
-191	148927.365
-190	149777.2245
-189	149669.6283
-188	150351.0688
-187	149103.7155
-186	149054.6927
-185	149669.1392
-184	150511.4354
-183	151725.5638
-182	148641.5269
-181	151823.0172
-180	151382.2577
-179	150049.5938
-178	149530.9056
-177	151355.0689
-176	150754.4995
-175	148905.3965
-174	151345.029
-173	150561.4832
-172	150561.8836
-171	151023.1103
-170	149409.4098
-169	151215.572
-168	150731.2379
-167	151830.8123
-166	150779.3042
-165	151908.1035
-164	152000.8965
-163	153419.2494
-162	152177.2845
-161	151302.997
-160	153748.8718
-159	153734.2604
-158	153652.4684
-157	152199.3513
-156	154606.233
-155	153129.7769
-154	151776.3149
-153	153192.8436
-152	153341.557
-151	153430.5422
-150	153022.1133
-149	152386.0548
-148	153323.0531
-147	153731.2038
-146	152288.3512
-145	153132.5692
-144	154666.634
-143	152573.9755
-142	152497.2438
-141	153077.9972
-140	153032.2442
-139	154229.1374
-138	153787.6227
-137	153283.9573
-136	154092.7088
-135	155827.626
-134	153884.3346
-133	153793.3946
-132	156971.8041
-131	156618.7852
-130	159627.6088
-129	158737.2345
-128	158243.297
-127	159236.8725
-126	158813.5999
-125	157694.1025
-124	157418.8637
-123	156866.6016
-122	157560.2886
-121	155968.1544
-120	157550.8795
-119	157969.2421
-118	157333.0493
-117	157034.8467
-116	155091.2447
-115	156517.0894
-114	157019.9982
-113	157005.0426
-112	155211.6003
-111	157061.3091
-110	157086.4441
-109	155854.5338
-108	158978.175
-107	158434.6907
-106	157756.5556
-105	157728.0187
-104	157158.2168
-103	158075.8788
-102	159573.8922
-101	159564.5552
-100	160478.6938
-99	161356.4535
-98	162183.4186
-97	161101.4989
-96	163645.9769
-95	162455.2279
-94	162961.4924
-93	164170.9323
-92	162849.8349
-91	162459.4373
-90	162049.3711
-89	161498.1339
-88	162876.5112
-87	162774.844
-86	161766.7866
-85	159399.3955
-84	161072.9828
-83	157673.2068
-82	160608.1765
-81	161669.4282
-80	159542.0214
-79	161163.1393
-78	160274.2378
-77	161631.2087
-76	161523.0235
-75	163414.2027
-74	161267.4514
-73	162420.1554
-72	164410.6795
-71	164660.6482
-70	166944.2115
-69	169118.4129
-68	168571.4653
-67	169044.7611
-66	172608.0298
-65	173829.6418
-64	173138.371
-63	174779.9604
-62	175605.8082
-61	174197.6159
-60	174501.3366
-59	173236.877
-58	173738.1544
-57	170763.8558
-56	170739.2892
-55	169274.3554
-54	168864.2013
-53	169137.8554
-52	170255.8238
-51	170818.5334
-50	167989.2987
-49	168189.1936
-48	170620.5728
-47	167398.1582
-46	165939.5373
-45	167600.5731
-44	165646.2454
-43	168425.4286
-42	169443.2656
-41	168617.6562
-40	169250.1113
-39	170201.3834
-38	171703.7414
-37	173297.0824
-36	176669.3938
-35	178267.9434
-34	181952.9605
-33	184469.6192
-32	186860.8895
-31	187568.5496
-30	188263.9618
-29	180258.6986
-28	175757.304
-27	168265.68
-26	171884.0921
-25	172600.1611
-24	173690.092
-23	177385.306
-22	182024.9317
-21	188983.245
-20	193526.4585
-19	197739.1412
-18	199827.0632
-17	203117.7853
-16	202737.3617
-15	206357.7028
-14	209012.9625
-13	216228.9186
-12	225666.5123
-11	232573.6656
-10	235713.7848
-9	246620.5731
-8	252270.1032
-7	268300.8435
-6	277245.1885
-5	303960.2004
-4	329124.1997
-3	361142.0239
-2	363595.8353
-1	384936.16
0	1342087.0798
1	384936.16
2	363595.8353
3	361142.0239
4	329124.1997
5	303960.2004
6	277245.1885
7	268300.8435
8	252270.1032
9	246620.5731
10	235713.7848
11	232573.6656
12	225666.5123
13	216228.9186
14	209012.9625
15	206357.7028
16	202737.3617
17	203117.7853
18	199827.0632
19	197739.1412
20	193526.4585
21	188983.245
22	182024.9317
23	177385.306
24	173690.092
25	172600.1611
26	171884.0921
27	168265.68
28	175757.304
29	180258.6986
30	188263.9618
31	187568.5496
32	186860.8895
33	184469.6192
34	181952.9605
35	178267.9434
36	176669.3938
37	173297.0824
38	171703.7414
39	170201.3834
40	169250.1113
41	168617.6562
42	169443.2656
43	168425.4286
44	165646.2454
45	167600.5731
46	165939.5373
47	167398.1582
48	170620.5728
49	168189.1936
50	167989.2987
51	170818.5334
52	170255.8238
53	169137.8554
54	168864.2013
55	169274.3554
56	170739.2892
57	170763.8558
58	173738.1544
59	173236.877
60	174501.3366
61	174197.6159
62	175605.8082
63	174779.9604
64	173138.371
65	173829.6418
66	172608.0298
67	169044.7611
68	168571.4653
69	169118.4129
70	166944.2115
71	164660.6482
72	164410.6795
73	162420.1554
74	161267.4514
75	163414.2027
76	161523.0235
77	161631.2087
78	160274.2378
79	161163.1393
80	159542.0214
81	161669.4282
82	160608.1765
83	157673.2068
84	161072.9828
85	159399.3955
86	161766.7866
87	162774.844
88	162876.5112
89	161498.1339
90	162049.3711
91	162459.4373
92	162849.8349
93	164170.9323
94	162961.4924
95	162455.2279
96	163645.9769
97	161101.4989
98	162183.4186
99	161356.4535
100	160478.6938
101	159564.5552
102	159573.8922
103	158075.8788
104	157158.2168
105	157728.0187
106	157756.5556
107	158434.6907
108	158978.175
109	155854.5338
110	157086.4441
111	157061.3091
112	155211.6003
113	157005.0426
114	157019.9982
115	156517.0894
116	155091.2447
117	157034.8467
118	157333.0493
119	157969.2421
120	157550.8795
121	155968.1544
122	157560.2886
123	156866.6016
124	157418.8637
125	157694.1025
126	158813.5999
127	159236.8725
128	158243.297
129	158737.2345
130	159627.6088
131	156618.7852
132	156971.8041
133	153793.3946
134	153884.3346
135	155827.626
136	154092.7088
137	153283.9573
138	153787.6227
139	154229.1374
140	153032.2442
141	153077.9972
142	152497.2438
143	152573.9755
144	154666.634
145	153132.5692
146	152288.3512
147	153731.2038
148	153323.0531
149	152386.0548
150	153022.1133
151	153430.5422
152	153341.557
153	153192.8436
154	151776.3149
155	153129.7769
156	154606.233
157	152199.3513
158	153652.4684
159	153734.2604
160	153748.8718
161	151302.997
162	152177.2845
163	153419.2494
164	152000.8965
165	151908.1035
166	150779.3042
167	151830.8123
168	150731.2379
169	151215.572
170	149409.4098
171	151023.1103
172	150561.8836
173	150561.4832
174	151345.029
175	148905.3965
176	150754.4995
177	151355.0689
178	149530.9056
179	150049.5938
180	151382.2577
181	151823.0172
182	148641.5269
183	151725.5638
184	150511.4354
185	149669.1392
186	149054.6927
187	149103.7155
188	150351.0688
189	149669.6283
190	149777.2245
191	148927.365
192	149634.9812
193	148296.3057
194	149080.6477
195	148689.2689
196	147886.7367
197	148748.7612
198	147494.9454
199	146429.6919
200	74252.4329
