Position	Value
-200	170540.1266
-199	85518.6302
-198	86116.3026
-197	85942.6903
-196	85176.9235
-195	86589.6374
-194	85570.0298
-193	86985.9792
-192	86601.9924
-191	85691.316
-190	86195.5047
-189	86426.3585
-188	86750.5974
-187	86883.7783
-186	87323.2927
-185	87041.9586
-184	87047.5048
-183	88189.3595
-182	86328.8752
-181	88891.7416
-180	88120.8676
-179	85514.7275
-178	86521.8407
-177	88543.2026
-176	87314.8083
-175	86804.3619
-174	87998.0868
-173	86311.6598
-172	88251.2179
-171	87952.3006
-170	86402.4927
-169	89539.6123
-168	88188.5263
-167	88388.6449
-166	87969.4387
-165	89947.7672
-164	88485.3048
-163	89053.1521
-162	89479.4308
-161	88701.9899
-160	88924.1442
-159	90463.0781
-158	89203.0643
-157	89216.6174
-156	91806.0266
-155	89934.6954
-154	89907.5581
-153	90614.9072
-152	91241.6721
-151	89749.6935
-150	91266.6186
-149	91185.2732
-148	89631.5036
-147	90420.2836
-146	89182.8178
-145	90933.076
-144	90273.365
-143	89963.682
-142	90776.3755
-141	89161.3167
-140	90653.9468
-139	90427.7129
-138	91021.1384
-137	89429.8957
-136	90329.7293
-135	91873.6084
-134	90471.1765
-133	89964.2856
-132	92221.7009
-131	92207.8985
-130	94133.4918
-129	94339.8461
-128	93043.485
-127	93622.8268
-126	94626.2323
-125	93473.2758
-124	92516.7309
-123	94043.9017
-122	92550.4478
-121	92259.1739
-120	93859.2884
-119	91821.3683
-118	92012.5485
-117	92449.9245
-116	90868.7244
-115	92770.4976
-114	92284.4571
-113	93107.6288
-112	90628.378
-111	93123.4603
-110	92923.1122
-109	92676.6484
-108	93193.2399
-107	92750.4639
-106	92779.8527
-105	94902.0187
-104	92791.1194
-103	92947.6782
-102	96127.2578
-101	94271.1718
-100	95540.0749
-99	96457.4011
-98	97829.795
-97	95921.4318
-96	97591.7817
-95	98054.1725
-94	99019.5254
-93	98077.5762
-92	98165.4103
-91	97429.969
-90	96947.178
-89	96652.4637
-88	97238.0508
-87	95554.1467
-86	96422.1276
-85	93711.2887
-84	95423.269
-83	91943.1206
-82	93842.0077
-81	95391.6099
-80	93690.6218
-79	95243.7471
-78	95083.9888
-77	97178.668
-76	95683.714
-75	97992.0041
-74	97196.7023
-73	97609.3986
-72	98747.353
-71	97356.4482
-70	100943.874
-69	103134.2284
-68	101565.402
-67	103402.552
-66	104857.9041
-65	106591.9223
-64	105087.2311
-63	106984.2078
-62	106679.5312
-61	105283.5431
-60	105348.677
-59	103353.9322
-58	103983.1657
-57	101541.2879
-56	100272.9206
-55	99595.819
-54	99248.9182
-53	100667.0621
-52	101152.4511
-51	99970.1304
-50	98918.0258
-49	99985.3005
-48	100931.0124
-47	100154.1659
-46	99351.1032
-45	100619.4732
-44	98694.6618
-43	101140.0207
-42	104550.6925
-41	101720.7723
-40	102825.5731
-39	103395.8106
-38	105181.8168
-37	107397.6009
-36	112420.425
-35	110738.2962
-34	114301.1919
-33	117030.1409
-32	118745.6043
-31	120013.1734
-30	122319.2106
-29	115330.8941
-28	109320.6888
-27	105763.6727
-26	104629.7727
-25	104228.4012
-24	106631.4489
-23	108807.6293
-22	108656.5563
-21	113032.8603
-20	114579.1491
-19	116656.57
-18	118408.7613
-17	120231.7166
-16	118889.5391
-15	121710.1559
-14	124720.721
-13	129085.6227
-12	134437.0216
-11	138818.3554
-10	141555.1285
-9	148498.7565
-8	155310.081
-7	160918.9844
-6	168993.5743
-5	180822.6235
-4	196519.0789
-3	215571.2718
-2	188476.3223
-1	185723.9535
0	983172.8298
1	185723.9535
2	188476.3223
3	215571.2718
4	196519.0789
5	180822.6235
6	168993.5743
7	160918.9844
8	155310.081
9	148498.7565
10	141555.1285
11	138818.3554
12	134437.0216
13	129085.6227
14	124720.721
15	121710.1559
16	118889.5391
17	120231.7166
18	118408.7613
19	116656.57
20	114579.1491
21	113032.8603
22	108656.5563
23	108807.6293
24	106631.4489
25	104228.4012
26	104629.7727
27	105763.6727
28	109320.6888
29	115330.8941
30	122319.2106
31	120013.1734
32	118745.6043
33	117030.1409
34	114301.1919
35	110738.2962
36	112420.425
37	107397.6009
38	105181.8168
39	103395.8106
40	102825.5731
41	101720.7723
42	104550.6925
43	101140.0207
44	98694.6618
45	100619.4732
46	99351.1032
47	100154.1659
48	100931.0124
49	99985.3005
50	98918.0258
51	99970.1304
52	101152.4511
53	100667.0621
54	99248.9182
55	99595.819
56	100272.9206
57	101541.2879
58	103983.1657
59	103353.9322
60	105348.677
61	105283.5431
62	106679.5312
63	106984.2078
64	105087.2311
65	106591.9223
66	104857.9041
67	103402.552
68	101565.402
69	103134.2284
70	100943.874
71	97356.4482
72	98747.353
73	97609.3986
74	97196.7023
75	97992.0041
76	95683.714
77	97178.668
78	95083.9888
79	95243.7471
80	93690.6218
81	95391.6099
82	93842.0077
83	91943.1206
84	95423.269
85	93711.2887
86	96422.1276
87	95554.1467
88	97238.0508
89	96652.4637
90	96947.178
91	97429.969
92	98165.4103
93	98077.5762
94	99019.5254
95	98054.1725
96	97591.7817
97	95921.4318
98	97829.795
99	96457.4011
100	95540.0749
101	94271.1718
102	96127.2578
103	92947.6782
104	92791.1194
105	94902.0187
106	92779.8527
107	92750.4639
108	93193.2399
109	92676.6484
110	92923.1122
111	93123.4603
112	90628.378
113	93107.6288
114	92284.4571
115	92770.4976
116	90868.7244
117	92449.9245
118	92012.5485
119	91821.3683
120	93859.2884
121	92259.1739
122	92550.4478
123	94043.9017
124	92516.7309
125	93473.2758
126	94626.2323
127	93622.8268
128	93043.485
129	94339.8461
130	94133.4918
131	92207.8985
132	92221.7009
133	89964.2856
134	90471.1765
135	91873.6084
136	90329.7293
137	89429.8957
138	91021.1384
139	90427.7129
140	90653.9468
141	89161.3167
142	90776.3755
143	89963.682
144	90273.365
145	90933.076
146	89182.8178
147	90420.2836
148	89631.5036
149	91185.2732
150	91266.6186
151	89749.6935
152	91241.6721
153	90614.9072
154	89907.5581
155	89934.6954
156	91806.0266
157	89216.6174
158	89203.0643
159	90463.0781
160	88924.1442
161	88701.9899
162	89479.4308
163	89053.1521
164	88485.3048
165	89947.7672
166	87969.4387
167	88388.6449
168	88188.5263
169	89539.6123
170	86402.4927
171	87952.3006
172	88251.2179
173	86311.6598
174	87998.0868
175	86804.3619
176	87314.8083
177	88543.2026
178	86521.8407
179	85514.7275
180	88120.8676
181	88891.7416
182	86328.8752
183	88189.3595
184	87047.5048
185	87041.9586
186	87323.2927
187	86883.7783
188	86750.5974
189	86426.3585
190	86195.5047
191	85691.316
192	86601.9924
193	86985.9792
194	85570.0298
195	86589.6374
196	85176.9235
197	85942.6903
198	86116.3026
199	85518.6302
200	170540.1266
