Position	Value
-200	4528.3204
-199	9210.6415
-198	9304.1028
-197	9124.4131
-196	9054.8656
-195	9387.4069
-194	9151.4768
-193	9321.4044
-192	9129.2075
-191	9227.8089
-190	9215.3475
-189	9278.8442
-188	9537.3053
-187	9557.2179
-186	9617.6714
-185	9487.5644
-184	9607.0508
-183	9702.3497
-182	9554.751
-181	9783.7252
-180	9635.0412
-179	9624.3864
-178	9361.931
-177	9711.822
-176	9659.9152
-175	9752.0082
-174	9605.8897
-173	9517.8221
-172	9240.8483
-171	9545.1226
-170	9095.9603
-169	9247.5601
-168	9284.8307
-167	9675.1512
-166	9318.6073
-165	9651.7523
-164	9533.1679
-163	9624.7973
-162	9817.9527
-161	9357.9145
-160	9788.4689
-159	9530.0167
-158	9309.7066
-157	9340.7724
-156	9576.1276
-155	9502.9358
-154	9535.133
-153	9521.8897
-152	9745.5382
-151	9519.3602
-150	9289.5681
-149	9077.8234
-148	9321.0585
-147	9210.7752
-146	9279.0677
-145	9552.861
-144	9782.4994
-143	9676.2105
-142	9475.6978
-141	9589.5333
-140	9704.5779
-139	9538.5368
-138	9611.3582
-137	9682.6022
-136	9763.5119
-135	9996.6372
-134	9912.9227
-133	9793.5188
-132	10047.3255
-131	10043.1914
-130	10137.7331
-129	10094.2085
-128	10000.5857
-127	9884.8505
-126	10135.1752
-125	10092.543
-124	10281.2962
-123	10494.1679
-122	10409.0366
-121	10664.3301
-120	10473.1145
-119	10456.4689
-118	10353.4096
-117	10131.4871
-116	9901.7962
-115	9562.9754
-114	9892.3155
-113	9873.3268
-112	10123.47
-111	10056.8266
-110	10279.1968
-109	10048.6793
-108	10115.5617
-107	10288.0052
-106	10125.11
-105	10290.9396
-104	10188.1902
-103	10207.1935
-102	10314.834
-101	10487.1991
-100	10695.174
-99	10844.2481
-98	11072.7358
-97	10826.1925
-96	10954.6749
-95	10892.7421
-94	10743.9637
-93	10842.6347
-92	10797.231
-91	11121.6962
-90	11137.4229
-89	11052.8566
-88	11105.346
-87	11053.4803
-86	10691.9876
-85	10712.1239
-84	10851.6631
-83	10992.4258
-82	10810.5544
-81	10949.7048
-80	10988.6095
-79	11170.3431
-78	11140.3888
-77	11153.8652
-76	11284.6868
-75	11297.4351
-74	11329.887
-73	11211.4141
-72	11664.1394
-71	11467.5538
-70	11724.3603
-69	11953.5319
-68	12232.271
-67	12246.097
-66	12384.4627
-65	12730.4884
-64	12794.9271
-63	12816.5546
-62	12872.3543
-61	12926.0656
-60	12867.2809
-59	12846.9011
-58	12809.4901
-57	12437.1995
-56	12342.6566
-55	11976.815
-54	11752.3218
-53	11887.4108
-52	11620.843
-51	11784.0728
-50	11503.155
-49	11393.3835
-48	11726.2439
-47	11552.5033
-46	11515.965
-45	12010.2062
-44	11846.7331
-43	12000.5345
-42	12324.0967
-41	12161.2536
-40	12448.7838
-39	12721.2093
-38	12621.4334
-37	12739.5084
-36	13368.8569
-35	13673.3644
-34	14350.9592
-33	14894.5997
-32	14651.6467
-31	14892.5079
-30	15209.6581
-29	14451.8786
-28	14522.5958
-27	13589.4757
-26	12434.017
-25	11763.308
-24	11983.6995
-23	11922.0965
-22	12143.3079
-21	12703.4535
-20	12585.9361
-19	12828.1219
-18	13547.1517
-17	13740.7849
-16	14754.2157
-15	15104.1223
-14	15561.8255
-13	16655.1845
-12	18835.2327
-11	20096.6961
-10	21752.4606
-9	23566.005
-8	25556.8111
-7	29084.6974
-6	32820.2811
-5	38164.9123
-4	44576.9165
-3	53120.6019
-2	61884.0361
-1	74515.0044
0	469888.9295
1	74515.0044
2	61884.0361
3	53120.6019
4	44576.9165
5	38164.9123
6	32820.2811
7	29084.6974
8	25556.8111
9	23566.005
10	21752.4606
11	20096.6961
12	18835.2327
13	16655.1845
14	15561.8255
15	15104.1223
16	14754.2157
17	13740.7849
18	13547.1517
19	12828.1219
20	12585.9361
21	12703.4535
22	12143.3079
23	11922.0965
24	11983.6995
25	11763.308
26	12434.017
27	13589.4757
28	14522.5958
29	14451.8786
30	15209.6581
31	14892.5079
32	14651.6467
33	14894.5997
34	14350.9592
35	13673.3644
36	13368.8569
37	12739.5084
38	12621.4334
39	12721.2093
40	12448.7838
41	12161.2536
42	12324.0967
43	12000.5345
44	11846.7331
45	12010.2062
46	11515.965
47	11552.5033
48	11726.2439
49	11393.3835
50	11503.155
51	11784.0728
52	11620.843
53	11887.4108
54	11752.3218
55	11976.815
56	12342.6566
57	12437.1995
58	12809.4901
59	12846.9011
60	12867.2809
61	12926.0656
62	12872.3543
63	12816.5546
64	12794.9271
65	12730.4884
66	12384.4627
67	12246.097
68	12232.271
69	11953.5319
70	11724.3603
71	11467.5538
72	11664.1394
73	11211.4141
74	11329.887
75	11297.4351
76	11284.6868
77	11153.8652
78	11140.3888
79	11170.3431
80	10988.6095
81	10949.7048
82	10810.5544
83	10992.4258
84	10851.6631
85	10712.1239
86	10691.9876
87	11053.4803
88	11105.346
89	11052.8566
90	11137.4229
91	11121.6962
92	10797.231
93	10842.6347
94	10743.9637
95	10892.7421
96	10954.6749
97	10826.1925
98	11072.7358
99	10844.2481
100	10695.174
101	10487.1991
102	10314.834
103	10207.1935
104	10188.1902
105	10290.9396
106	10125.11
107	10288.0052
108	10115.5617
109	10048.6793
110	10279.1968
111	10056.8266
112	10123.47
113	9873.3268
114	9892.3155
115	9562.9754
116	9901.7962
117	10131.4871
118	10353.4096
119	10456.4689
120	10473.1145
121	10664.3301
122	10409.0366
123	10494.1679
124	10281.2962
125	10092.543
126	10135.1752
127	9884.8505
128	10000.5857
129	10094.2085
130	10137.7331
131	10043.1914
132	10047.3255
133	9793.5188
134	9912.9227
135	9996.6372
136	9763.5119
137	9682.6022
138	9611.3582
139	9538.5368
140	9704.5779
141	9589.5333
142	9475.6978
143	9676.2105
144	9782.4994
145	9552.861
146	9279.0677
147	9210.7752
148	9321.0585
149	9077.8234
150	9289.5681
151	9519.3602
152	9745.5382
153	9521.8897
154	9535.133
155	9502.9358
156	9576.1276
157	9340.7724
158	9309.7066
159	9530.0167
160	9788.4689
161	9357.9145
162	9817.9527
163	9624.7973
164	9533.1679
165	9651.7523
166	9318.6073
167	9675.1512
168	9284.8307
169	9247.5601
170	9095.9603
171	9545.1226
172	9240.8483
173	9517.8221
174	9605.8897
175	9752.0082
176	9659.9152
177	9711.822
178	9361.931
179	9624.3864
180	9635.0412
181	9783.7252
182	9554.751
183	9702.3497
184	9607.0508
185	9487.5644
186	9617.6714
187	9557.2179
188	9537.3053
189	9278.8442
190	9215.3475
191	9227.8089
192	9129.2075
193	9321.4044
194	9151.4768
195	9387.4069
196	9054.8656
197	9124.4131
198	9304.1028
199	9210.6415
200	4528.3204
