Position	Value
-200	6812.7101
-199	13372.532
-198	13904.951
-197	14082.1814
-196	13751.1846
-195	13932.26
-194	14411.4057
-193	14092.2744
-192	14031.649
-191	14381.1095
-190	14463.8034
-189	14859.0237
-188	14832.4305
-187	14958.0478
-186	14184.8237
-185	14886.7146
-184	14412.9399
-183	14530.729
-182	14163.6911
-181	14315.6075
-180	14179.4757
-179	13924.6731
-178	13907.9991
-177	13956.5355
-176	13639.2346
-175	13848.5698
-174	14121.2215
-173	13596.702
-172	13889.8326
-171	13831.5122
-170	13905.1044
-169	13922.9184
-168	13685.8577
-167	14124.6006
-166	13878.4114
-165	14415.1954
-164	14109.6128
-163	14203.0345
-162	14449.6822
-161	14573.6234
-160	14578.8034
-159	14796.6982
-158	14790.8085
-157	14792.4422
-156	14846.8813
-155	14481.1435
-154	14776.4236
-153	14916.1183
-152	14549.4408
-151	14399.3951
-150	14632.3
-149	14279.4441
-148	14304.0333
-147	14369.1547
-146	13845.8502
-145	14388.7782
-144	14209.6276
-143	14550.244
-142	14511.0913
-141	14394.0655
-140	14258.2712
-139	14605.1671
-138	14489.4148
-137	14826.2478
-136	14536.9686
-135	15268.7699
-134	15359.997
-133	14900.204
-132	15275.1697
-131	15823.0669
-130	15697.8026
-129	15665.0034
-128	16400.1614
-127	15908.0829
-126	15983.1866
-125	15661.344
-124	15954.3491
-123	15970.7364
-122	15595.6266
-121	15818.3211
-120	15528.2037
-119	15356.4539
-118	15188.4533
-117	15057.651
-116	15185.3418
-115	14845.6813
-114	14624.0948
-113	14613.5216
-112	15130.9744
-111	15084.7112
-110	15069.2367
-109	14828.1629
-108	15183.411
-107	14878.4548
-106	15049.3974
-105	14973.9113
-104	15032.8446
-103	15298.3451
-102	15775.5939
-101	15831.9522
-100	16009.8204
-99	16664.6574
-98	16752.1707
-97	16855.7993
-96	17204.5211
-95	17115.4647
-94	17339.1737
-93	17621.0342
-92	17394.3068
-91	17209.0939
-90	17123.9225
-89	17001.9031
-88	16606.541
-87	16550.2981
-86	16193.2481
-85	16048.7771
-84	15737.7953
-83	15589.2529
-82	15295.3782
-81	15566.8628
-80	15500.9985
-79	15312.0555
-78	15480.3629
-77	15663.1436
-76	16013.8863
-75	15617.843
-74	16125.9673
-73	16362.0546
-72	16729.5267
-71	17474.2481
-70	17405.3464
-69	18248.042
-68	17997.3556
-67	18082.7022
-66	18764.5775
-65	18438.3881
-64	18979.0189
-63	19262.7498
-62	19034.3883
-61	19591.4751
-60	19638.0817
-59	19017.4071
-58	18626.5852
-57	18232.7547
-56	17765.2429
-55	17225.3654
-54	17350.1693
-53	16747.3639
-52	16390.3308
-51	16341.362
-50	16262.9142
-49	16362.2374
-48	16486.7559
-47	16815.0461
-46	16396.8315
-45	17178.7086
-44	17370.4873
-43	17360.9656
-42	17743.8941
-41	17780.8086
-40	18137.3867
-39	19043.9181
-38	19385.0151
-37	19955.0646
-36	20208.7864
-35	21412.3702
-34	21384.6338
-33	21542.7187
-32	21949.5953
-31	21926.7325
-30	23250.9438
-29	22926.4376
-28	22521.9961
-27	21513.0794
-26	20527.4456
-25	19658.7597
-24	19591.826
-23	19631.8281
-22	19346.9801
-21	19948.7613
-20	19480.894
-19	20033.5589
-18	20230.9553
-17	21301.4459
-16	22177.3697
-15	22649.5312
-14	24444.2352
-13	25621.3363
-12	27291.3216
-11	29737.9404
-10	31634.0983
-9	36015.0204
-8	38397.3017
-7	42486.3606
-6	48109.4676
-5	53706.0024
-4	61020.6278
-3	71762.5152
-2	81194.2289
-1	92695.3761
0	421136.742
1	92695.3761
2	81194.2289
3	71762.5152
4	61020.6278
5	53706.0024
6	48109.4676
7	42486.3606
8	38397.3017
9	36015.0204
10	31634.0983
11	29737.9404
12	27291.3216
13	25621.3363
14	24444.2352
15	22649.5312
16	22177.3697
17	21301.4459
18	20230.9553
19	20033.5589
20	19480.894
21	19948.7613
22	19346.9801
23	19631.8281
24	19591.826
25	19658.7597
26	20527.4456
27	21513.0794
28	22521.9961
29	22926.4376
30	23250.9438
31	21926.7325
32	21949.5953
33	21542.7187
34	21384.6338
35	21412.3702
36	20208.7864
37	19955.0646
38	19385.0151
39	19043.9181
40	18137.3867
41	17780.8086
42	17743.8941
43	17360.9656
44	17370.4873
45	17178.7086
46	16396.8315
47	16815.0461
48	16486.7559
49	16362.2374
50	16262.9142
51	16341.362
52	16390.3308
53	16747.3639
54	17350.1693
55	17225.3654
56	17765.2429
57	18232.7547
58	18626.5852
59	19017.4071
60	19638.0817
61	19591.4751
62	19034.3883
63	19262.7498
64	18979.0189
65	18438.3881
66	18764.5775
67	18082.7022
68	17997.3556
69	18248.042
70	17405.3464
71	17474.2481
72	16729.5267
73	16362.0546
74	16125.9673
75	15617.843
76	16013.8863
77	15663.1436
78	15480.3629
79	15312.0555
80	15500.9985
81	15566.8628
82	15295.3782
83	15589.2529
84	15737.7953
85	16048.7771
86	16193.2481
87	16550.2981
88	16606.541
89	17001.9031
90	17123.9225
91	17209.0939
92	17394.3068
93	17621.0342
94	17339.1737
95	17115.4647
96	17204.5211
97	16855.7993
98	16752.1707
99	16664.6574
100	16009.8204
101	15831.9522
102	15775.5939
103	15298.3451
104	15032.8446
105	14973.9113
106	15049.3974
107	14878.4548
108	15183.411
109	14828.1629
110	15069.2367
111	15084.7112
112	15130.9744
113	14613.5216
114	14624.0948
115	14845.6813
116	15185.3418
117	15057.651
118	15188.4533
119	15356.4539
120	15528.2037
121	15818.3211
122	15595.6266
123	15970.7364
124	15954.3491
125	15661.344
126	15983.1866
127	15908.0829
128	16400.1614
129	15665.0034
130	15697.8026
131	15823.0669
132	15275.1697
133	14900.204
134	15359.997
135	15268.7699
136	14536.9686
137	14826.2478
138	14489.4148
139	14605.1671
140	14258.2712
141	14394.0655
142	14511.0913
143	14550.244
144	14209.6276
145	14388.7782
146	13845.8502
147	14369.1547
148	14304.0333
149	14279.4441
150	14632.3
151	14399.3951
152	14549.4408
153	14916.1183
154	14776.4236
155	14481.1435
156	14846.8813
157	14792.4422
158	14790.8085
159	14796.6982
160	14578.8034
161	14573.6234
162	14449.6822
163	14203.0345
164	14109.6128
165	14415.1954
166	13878.4114
167	14124.6006
168	13685.8577
169	13922.9184
170	13905.1044
171	13831.5122
172	13889.8326
173	13596.702
174	14121.2215
175	13848.5698
176	13639.2346
177	13956.5355
178	13907.9991
179	13924.6731
180	14179.4757
181	14315.6075
182	14163.6911
183	14530.729
184	14412.9399
185	14886.7146
186	14184.8237
187	14958.0478
188	14832.4305
189	14859.0237
190	14463.8034
191	14381.1095
192	14031.649
193	14092.2744
194	14411.4057
195	13932.26
196	13751.1846
197	14082.1814
198	13904.951
199	13372.532
200	6812.7101
