Position	Value
-200	337.0054
-199	703.0945
-198	677.9589
-197	670.0088
-196	728.5083
-195	657.9962
-194	634.6585
-193	699.939
-192	634.7493
-191	702.4024
-190	691.544
-189	687.8292
-188	690.3162
-187	745.9476
-186	641.811
-185	728.8433
-184	713.8987
-183	705.399
-182	677.2197
-181	652.2598
-180	646.6302
-179	691.9823
-178	725.1312
-177	568.0777
-176	679.966
-175	654.9626
-174	645.6581
-173	683.6329
-172	724.7578
-171	685.6491
-170	682.398
-169	643.0778
-168	724.252
-167	715.689
-166	728.5175
-165	733.2985
-164	720.8501
-163	784.7044
-162	724.0135
-161	720.0297
-160	771.9069
-159	795.6092
-158	709.3607
-157	781.0009
-156	748.0627
-155	799.3634
-154	780.2318
-153	859.925
-152	740.784
-151	783.4143
-150	806.9205
-149	795.9581
-148	760.3299
-147	872.4408
-146	792.3448
-145	785.9375
-144	742.967
-143	830.0803
-142	719.3025
-141	743.0408
-140	776.2397
-139	855.3
-138	774.8888
-137	737.1746
-136	800.3011
-135	820.8408
-134	801.7122
-133	835.0546
-132	794.3
-131	737.0662
-130	835.1847
-129	866.0209
-128	824.8006
-127	913.888
-126	832.7443
-125	890.7862
-124	849.7954
-123	913.8846
-122	808.7264
-121	840.6396
-120	865.66
-119	807.3185
-118	884.8657
-117	807.5318
-116	773.7138
-115	727.1908
-114	695.9183
-113	719.7018
-112	738.7133
-111	752.7017
-110	808.5693
-109	775.4195
-108	778.7269
-107	743.7975
-106	869.898
-105	817.3123
-104	877.912
-103	965.0154
-102	924.1769
-101	893.4735
-100	833.612
-99	1092.7647
-98	1119.8118
-97	944.1291
-96	991.1032
-95	1129.3353
-94	1009.4785
-93	1128.8478
-92	1009.8408
-91	1038.9813
-90	935.3296
-89	888.6684
-88	1004.7334
-87	945.8555
-86	795.3295
-85	902.9944
-84	790.8652
-83	804.0739
-82	826.768
-81	796.3506
-80	890.9518
-79	838.9827
-78	863.2964
-77	707.4309
-76	819.5121
-75	843.3152
-74	928.096
-73	912.041
-72	824.5846
-71	1007.8364
-70	1061.2588
-69	1177.7148
-68	1090.0333
-67	1212.9377
-66	1325.8148
-65	1278.5076
-64	1359.4137
-63	1343.4585
-62	1246.8779
-61	1440.9367
-60	1302.2812
-59	1291.4455
-58	1128.1873
-57	1218.0516
-56	1099.4153
-55	1013.5355
-54	968.3459
-53	878.1057
-52	929.2079
-51	863.4137
-50	942.0919
-49	877.3709
-48	916.6597
-47	918.2696
-46	901.6453
-45	936.2288
-44	922.6796
-43	903.0841
-42	1065.183
-41	1021.7807
-40	1079.2899
-39	1110.9377
-38	1350.824
-37	1363.9145
-36	1485.5241
-35	1556.1846
-34	1684.1707
-33	1841.4321
-32	1731.7746
-31	1832.7009
-30	1933.1711
-29	1917.5906
-28	1653.2216
-27	1478.9641
-26	1212.7749
-25	1215.7484
-24	1182.8776
-23	1156.0524
-22	1123.7738
-21	1300.7424
-20	1181.4263
-19	1185.0253
-18	1219.883
-17	1390.8809
-16	1442.4998
-15	1314.0919
-14	1487.2473
-13	1516.1246
-12	1905.616
-11	1710.4986
-10	2117.6233
-9	2294.4873
-8	2410.9893
-7	2560.9946
-6	3075.748
-5	3929.3373
-4	4462.9524
-3	4725.7152
-2	4950.2243
-1	4571.1599
0	58618.8546
1	4571.1599
2	4950.2243
3	4725.7152
4	4462.9524
5	3929.3373
6	3075.748
7	2560.9946
8	2410.9893
9	2294.4873
10	2117.6233
11	1710.4986
12	1905.616
13	1516.1246
14	1487.2473
15	1314.0919
16	1442.4998
17	1390.8809
18	1219.883
19	1185.0253
20	1181.4263
21	1300.7424
22	1123.7738
23	1156.0524
24	1182.8776
25	1215.7484
26	1212.7749
27	1478.9641
28	1653.2216
29	1917.5906
30	1933.1711
31	1832.7009
32	1731.7746
33	1841.4321
34	1684.1707
35	1556.1846
36	1485.5241
37	1363.9145
38	1350.824
39	1110.9377
40	1079.2899
41	1021.7807
42	1065.183
43	903.0841
44	922.6796
45	936.2288
46	901.6453
47	918.2696
48	916.6597
49	877.3709
50	942.0919
51	863.4137
52	929.2079
53	878.1057
54	968.3459
55	1013.5355
56	1099.4153
57	1218.0516
58	1128.1873
59	1291.4455
60	1302.2812
61	1440.9367
62	1246.8779
63	1343.4585
64	1359.4137
65	1278.5076
66	1325.8148
67	1212.9377
68	1090.0333
69	1177.7148
70	1061.2588
71	1007.8364
72	824.5846
73	912.041
74	928.096
75	843.3152
76	819.5121
77	707.4309
78	863.2964
79	838.9827
80	890.9518
81	796.3506
82	826.768
83	804.0739
84	790.8652
85	902.9944
86	795.3295
87	945.8555
88	1004.7334
89	888.6684
90	935.3296
91	1038.9813
92	1009.8408
93	1128.8478
94	1009.4785
95	1129.3353
96	991.1032
97	944.1291
98	1119.8118
99	1092.7647
100	833.612
101	893.4735
102	924.1769
103	965.0154
104	877.912
105	817.3123
106	869.898
107	743.7975
108	778.7269
109	775.4195
110	808.5693
111	752.7017
112	738.7133
113	719.7018
114	695.9183
115	727.1908
116	773.7138
117	807.5318
118	884.8657
119	807.3185
120	865.66
121	840.6396
122	808.7264
123	913.8846
124	849.7954
125	890.7862
126	832.7443
127	913.888
128	824.8006
129	866.0209
130	835.1847
131	737.0662
132	794.3
133	835.0546
134	801.7122
135	820.8408
136	800.3011
137	737.1746
138	774.8888
139	855.3
140	776.2397
141	743.0408
142	719.3025
143	830.0803
144	742.967
145	785.9375
146	792.3448
147	872.4408
148	760.3299
149	795.9581
150	806.9205
151	783.4143
152	740.784
153	859.925
154	780.2318
155	799.3634
156	748.0627
157	781.0009
158	709.3607
159	795.6092
160	771.9069
161	720.0297
162	724.0135
163	784.7044
164	720.8501
165	733.2985
166	728.5175
167	715.689
168	724.252
169	643.0778
170	682.398
171	685.6491
172	724.7578
173	683.6329
174	645.6581
175	654.9626
176	679.966
177	568.0777
178	725.1312
179	691.9823
180	646.6302
181	652.2598
182	677.2197
183	705.399
184	713.8987
185	728.8433
186	641.811
187	745.9476
188	690.3162
189	687.8292
190	691.544
191	702.4024
192	634.7493
193	699.939
194	634.6585
195	657.9962
196	728.5083
197	670.0088
198	677.9589
199	703.0945
200	337.0054
