Position	Value
-200	15870.0376
-199	31624.3964
-198	31979.5497
-197	32005.4649
-196	32117.9947
-195	32101.7566
-194	32252.0715
-193	32578.7757
-192	32199.995
-191	32356.9178
-190	32762.2102
-189	33128.5778
-188	33051.4015
-187	32842.8194
-186	32488.2494
-185	32904.0241
-184	32570.0297
-183	32702.7303
-182	32035.8938
-181	32578.3862
-180	32504.6207
-179	32265.9628
-178	32266.1904
-177	31291.6809
-176	32164.3337
-175	31455.8387
-174	32228.1832
-173	31435.4349
-172	31891.0245
-171	31829.8198
-170	32082.322
-169	32289.847
-168	32166.369
-167	32885.7915
-166	32898.6517
-165	33417.2454
-164	33128.0912
-163	33311.7053
-162	33742.6621
-161	33941.7335
-160	34005.6432
-159	34233.3699
-158	34316.5658
-157	34531.3788
-156	34700.165
-155	34179.3495
-154	34059.8174
-153	34262.2161
-152	33669.6866
-151	33350.8293
-150	33879.2814
-149	33173.1542
-148	33326.8764
-147	33206.6553
-146	32802.2717
-145	33646.0719
-144	32631.4436
-143	33383.9356
-142	33466.0116
-141	33327.3495
-140	33377.9027
-139	33485.317
-138	33525.7907
-137	33450.2145
-136	34104.9273
-135	34490.3857
-134	34552.7259
-133	34136.9664
-132	35131.6842
-131	35415.1347
-130	35041.8743
-129	35842.118
-128	35364.0488
-127	35449.2282
-126	35900.928
-125	35647.8327
-124	35578.926
-123	35587.3146
-122	34781.4274
-121	35582.1425
-120	34798.1861
-119	34740.1741
-118	34328.1986
-117	34240.7811
-116	33743.1958
-115	33999.9276
-114	34264.8753
-113	33526.7133
-112	33688.1119
-111	34160.3753
-110	34082.5975
-109	33901.0911
-108	34348.1417
-107	34233.8925
-106	34348.0678
-105	34273.4505
-104	34667.8411
-103	35612.2085
-102	35894.4777
-101	35930.0448
-100	36425.4247
-99	36528.4107
-98	37291.5289
-97	37380.2567
-96	37686.854
-95	37997.8545
-94	37767.5132
-93	38428.8163
-92	37937.0973
-91	37247.7642
-90	37074.7099
-89	36909.5799
-88	36385.7019
-87	36087.7988
-86	35775.8896
-85	36399.6427
-84	35553.185
-83	36032.429
-82	35348.6096
-81	35550.6591
-80	34844.2402
-79	35048.6152
-78	35393.759
-77	35232.7431
-76	35746.098
-75	36196.2007
-74	36495.7087
-73	36948.5772
-72	37556.7714
-71	37844.4509
-70	37973.1008
-69	38997.4171
-68	39109.0014
-67	39158.3073
-66	40205.0762
-65	40116.6617
-64	40667.069
-63	41673.2698
-62	41197.2638
-61	41591.2859
-60	41393.8173
-59	40577.1741
-58	40160.3872
-57	39491.3544
-56	38248.2552
-55	37654.6556
-54	37077.8747
-53	36826.6208
-52	37152.3803
-51	36733.2351
-50	36563.8352
-49	36514.7545
-48	36910.7867
-47	36424.168
-46	36890.499
-45	38138.7521
-44	37375.4365
-43	37403.4347
-42	37894.3464
-41	38389.8463
-40	39072.2215
-39	40213.4934
-38	41290.3211
-37	41678.4837
-36	42631.8032
-35	43977.3408
-34	45083.0558
-33	46259.5321
-32	47428.6093
-31	48321.0223
-30	47971.6265
-29	47656.0447
-28	48467.2867
-27	46503.5232
-26	40926.882
-25	38765.3832
-24	38388.4911
-23	38757.4427
-22	38538.743
-21	39399.1999
-20	38989.7966
-19	39619.1222
-18	39957.8174
-17	41460.0291
-16	43496.8094
-15	44434.5808
-14	46376.7908
-13	49449.9254
-12	54210.7555
-11	58565.6909
-10	62995.8481
-9	71042.7711
-8	75886.9906
-7	84808.1905
-6	95057.6318
-5	110997.3767
-4	124085.1804
-3	145393.1144
-2	165314.8442
-1	186995.6539
0	1183156.0483
1	186995.6539
2	165314.8442
3	145393.1144
4	124085.1804
5	110997.3767
6	95057.6318
7	84808.1905
8	75886.9906
9	71042.7711
10	62995.8481
11	58565.6909
12	54210.7555
13	49449.9254
14	46376.7908
15	44434.5808
16	43496.8094
17	41460.0291
18	39957.8174
19	39619.1222
20	38989.7966
21	39399.1999
22	38538.743
23	38757.4427
24	38388.4911
25	38765.3832
26	40926.882
27	46503.5232
28	48467.2867
29	47656.0447
30	47971.6265
31	48321.0223
32	47428.6093
33	46259.5321
34	45083.0558
35	43977.3408
36	42631.8032
37	41678.4837
38	41290.3211
39	40213.4934
40	39072.2215
41	38389.8463
42	37894.3464
43	37403.4347
44	37375.4365
45	38138.7521
46	36890.499
47	36424.168
48	36910.7867
49	36514.7545
50	36563.8352
51	36733.2351
52	37152.3803
53	36826.6208
54	37077.8747
55	37654.6556
56	38248.2552
57	39491.3544
58	40160.3872
59	40577.1741
60	41393.8173
61	41591.2859
62	41197.2638
63	41673.2698
64	40667.069
65	40116.6617
66	40205.0762
67	39158.3073
68	39109.0014
69	38997.4171
70	37973.1008
71	37844.4509
72	37556.7714
73	36948.5772
74	36495.7087
75	36196.2007
76	35746.098
77	35232.7431
78	35393.759
79	35048.6152
80	34844.2402
81	35550.6591
82	35348.6096
83	36032.429
84	35553.185
85	36399.6427
86	35775.8896
87	36087.7988
88	36385.7019
89	36909.5799
90	37074.7099
91	37247.7642
92	37937.0973
93	38428.8163
94	37767.5132
95	37997.8545
96	37686.854
97	37380.2567
98	37291.5289
99	36528.4107
100	36425.4247
101	35930.0448
102	35894.4777
103	35612.2085
104	34667.8411
105	34273.4505
106	34348.0678
107	34233.8925
108	34348.1417
109	33901.0911
110	34082.5975
111	34160.3753
112	33688.1119
113	33526.7133
114	34264.8753
115	33999.9276
116	33743.1958
117	34240.7811
118	34328.1986
119	34740.1741
120	34798.1861
121	35582.1425
122	34781.4274
123	35587.3146
124	35578.926
125	35647.8327
126	35900.928
127	35449.2282
128	35364.0488
129	35842.118
130	35041.8743
131	35415.1347
132	35131.6842
133	34136.9664
134	34552.7259
135	34490.3857
136	34104.9273
137	33450.2145
138	33525.7907
139	33485.317
140	33377.9027
141	33327.3495
142	33466.0116
143	33383.9356
144	32631.4436
145	33646.0719
146	32802.2717
147	33206.6553
148	33326.8764
149	33173.1542
150	33879.2814
151	33350.8293
152	33669.6866
153	34262.2161
154	34059.8174
155	34179.3495
156	34700.165
157	34531.3788
158	34316.5658
159	34233.3699
160	34005.6432
161	33941.7335
162	33742.6621
163	33311.7053
164	33128.0912
165	33417.2454
166	32898.6517
167	32885.7915
168	32166.369
169	32289.847
170	32082.322
171	31829.8198
172	31891.0245
173	31435.4349
174	32228.1832
175	31455.8387
176	32164.3337
177	31291.6809
178	32266.1904
179	32265.9628
180	32504.6207
181	32578.3862
182	32035.8938
183	32702.7303
184	32570.0297
185	32904.0241
186	32488.2494
187	32842.8194
188	33051.4015
189	33128.5778
190	32762.2102
191	32356.9178
192	32199.995
193	32578.7757
194	32252.0715
195	32101.7566
196	32117.9947
197	32005.4649
198	31979.5497
199	31624.3964
200	15870.0376
