Position	Value
-200	8939.8526
-199	18075.43
-198	17570.4922
-197	18380.4984
-196	17852.8585
-195	18336.8494
-194	19001.1679
-193	18999.7793
-192	18809.4941
-191	18975.6669
-190	19175.5241
-189	18841.1399
-188	18747.6879
-187	19169.5227
-186	19125.2505
-185	19167.8106
-184	18821.3984
-183	19250.7282
-182	18995.629
-181	18687.5162
-180	18595.7406
-179	18987.7166
-178	18760.5797
-177	18315.7036
-176	18814.4807
-175	18422.2337
-174	19565.3848
-173	17805.0749
-172	18464.6174
-171	18300.6878
-170	18144.9537
-169	17916.5212
-168	18037.3979
-167	18657.9231
-166	18307.0712
-165	19367.4909
-164	18708.8584
-163	18605.5353
-162	18708.0601
-161	18798.2709
-160	19250.1369
-159	19596.62
-158	19420.2306
-157	19807.9241
-156	19888.4524
-155	19399.1954
-154	19285.3542
-153	19530.6123
-152	19856.8573
-151	19091.3914
-150	19308.7811
-149	19146.2588
-148	18780.2817
-147	18908.21
-146	18614.8081
-145	18872.2109
-144	18291.6414
-143	18680.2391
-142	18926.2755
-141	18931.4957
-140	18236.3408
-139	18529.9909
-138	19009.6048
-137	18410.304
-136	18953.6216
-135	19852.7387
-134	19142.8472
-133	19634.4693
-132	20455.4316
-131	20191.1132
-130	19492.5665
-129	19652.0291
-128	20564.8594
-127	20482.5363
-126	20682.2242
-125	20424.6861
-124	20428.4317
-123	21200.6283
-122	20559.2263
-121	20658.6124
-120	20548.3501
-119	20160.8694
-118	20322.6196
-117	19757.3761
-116	19972.3608
-115	19915.2075
-114	19277.9997
-113	19720.3287
-112	19416.6968
-111	19343.2407
-110	19587.0941
-109	19113.3783
-108	18922.1706
-107	19183.5224
-106	19426.1515
-105	19055.0143
-104	19439.2703
-103	20321.2286
-102	20240.4461
-101	20351.7519
-100	19980.6519
-99	21009.3978
-98	21387.709
-97	21253.7957
-96	20934.8471
-95	21518.4922
-94	21946.1457
-93	22333.0233
-92	22268.7464
-91	22033.1058
-90	21941.6801
-89	21586.1095
-88	21030.9014
-87	21560.5848
-86	21242.5465
-85	20712.1596
-84	20543.6845
-83	20632.3657
-82	20070.1966
-81	20145.0588
-80	19866.6898
-79	19893.6843
-78	20243.7775
-77	19821.6902
-76	20548.9346
-75	20459.7133
-74	20314.3527
-73	20845.9751
-72	20754.2112
-71	21576.7491
-70	21493.0591
-69	22195.1234
-68	22223.3648
-67	22580.7682
-66	23143.6161
-65	22598.1702
-64	23698.7868
-63	23740.0198
-62	24011.8052
-61	24574.6787
-60	24489.1712
-59	23590.6212
-58	22803.2169
-57	22554.8786
-56	22513.4337
-55	21766.5192
-54	22254.5146
-53	20961.3698
-52	21500.0443
-51	20744.3642
-50	20898.4099
-49	20916.4526
-48	20919.6766
-47	20935.0097
-46	21138.226
-45	21865.4479
-44	21300.7975
-43	21749.748
-42	21664.0829
-41	22249.4791
-40	22706.1626
-39	24065.8386
-38	23777.5627
-37	24752.0385
-36	24323.8493
-35	25839.8491
-34	26004.6529
-33	27019.7313
-32	27790.6809
-31	27630.7954
-30	28357.9659
-29	28980.7505
-28	28158.138
-27	26458.1712
-26	24294.0791
-25	23935.8475
-24	24070.0305
-23	24578.9794
-22	24128.1114
-21	24912.8369
-20	24973.869
-19	25236.5539
-18	25010.3316
-17	25675.0145
-16	25895.4715
-15	26293.4138
-14	27072.3783
-13	28646.0287
-12	31106.955
-11	32179.928
-10	33577.7127
-9	38078.8888
-8	39022.6919
-7	42575.191
-6	46897.1992
-5	52516.6198
-4	56204.5257
-3	62995.3606
-2	57852.6738
-1	53268.021
0	369535.8081
1	53268.021
2	57852.6738
3	62995.3606
4	56204.5257
5	52516.6198
6	46897.1992
7	42575.191
8	39022.6919
9	38078.8888
10	33577.7127
11	32179.928
12	31106.955
13	28646.0287
14	27072.3783
15	26293.4138
16	25895.4715
17	25675.0145
18	25010.3316
19	25236.5539
20	24973.869
21	24912.8369
22	24128.1114
23	24578.9794
24	24070.0305
25	23935.8475
26	24294.0791
27	26458.1712
28	28158.138
29	28980.7505
30	28357.9659
31	27630.7954
32	27790.6809
33	27019.7313
34	26004.6529
35	25839.8491
36	24323.8493
37	24752.0385
38	23777.5627
39	24065.8386
40	22706.1626
41	22249.4791
42	21664.0829
43	21749.748
44	21300.7975
45	21865.4479
46	21138.226
47	20935.0097
48	20919.6766
49	20916.4526
50	20898.4099
51	20744.3642
52	21500.0443
53	20961.3698
54	22254.5146
55	21766.5192
56	22513.4337
57	22554.8786
58	22803.2169
59	23590.6212
60	24489.1712
61	24574.6787
62	24011.8052
63	23740.0198
64	23698.7868
65	22598.1702
66	23143.6161
67	22580.7682
68	22223.3648
69	22195.1234
70	21493.0591
71	21576.7491
72	20754.2112
73	20845.9751
74	20314.3527
75	20459.7133
76	20548.9346
77	19821.6902
78	20243.7775
79	19893.6843
80	19866.6898
81	20145.0588
82	20070.1966
83	20632.3657
84	20543.6845
85	20712.1596
86	21242.5465
87	21560.5848
88	21030.9014
89	21586.1095
90	21941.6801
91	22033.1058
92	22268.7464
93	22333.0233
94	21946.1457
95	21518.4922
96	20934.8471
97	21253.7957
98	21387.709
99	21009.3978
100	19980.6519
101	20351.7519
102	20240.4461
103	20321.2286
104	19439.2703
105	19055.0143
106	19426.1515
107	19183.5224
108	18922.1706
109	19113.3783
110	19587.0941
111	19343.2407
112	19416.6968
113	19720.3287
114	19277.9997
115	19915.2075
116	19972.3608
117	19757.3761
118	20322.6196
119	20160.8694
120	20548.3501
121	20658.6124
122	20559.2263
123	21200.6283
124	20428.4317
125	20424.6861
126	20682.2242
127	20482.5363
128	20564.8594
129	19652.0291
130	19492.5665
131	20191.1132
132	20455.4316
133	19634.4693
134	19142.8472
135	19852.7387
136	18953.6216
137	18410.304
138	19009.6048
139	18529.9909
140	18236.3408
141	18931.4957
142	18926.2755
143	18680.2391
144	18291.6414
145	18872.2109
146	18614.8081
147	18908.21
148	18780.2817
149	19146.2588
150	19308.7811
151	19091.3914
152	19856.8573
153	19530.6123
154	19285.3542
155	19399.1954
156	19888.4524
157	19807.9241
158	19420.2306
159	19596.62
160	19250.1369
161	18798.2709
162	18708.0601
163	18605.5353
164	18708.8584
165	19367.4909
166	18307.0712
167	18657.9231
168	18037.3979
169	17916.5212
170	18144.9537
171	18300.6878
172	18464.6174
173	17805.0749
174	19565.3848
175	18422.2337
176	18814.4807
177	18315.7036
178	18760.5797
179	18987.7166
180	18595.7406
181	18687.5162
182	18995.629
183	19250.7282
184	18821.3984
185	19167.8106
186	19125.2505
187	19169.5227
188	18747.6879
189	18841.1399
190	19175.5241
191	18975.6669
192	18809.4941
193	18999.7793
194	19001.1679
195	18336.8494
196	17852.8585
197	18380.4984
198	17570.4922
199	18075.43
200	8939.8526
