Position	Value
-200	2937.4789
-199	5891.7824
-198	6066.3221
-197	6222.2569
-196	5938.75
-195	6102.267
-194	6389.2892
-193	6193.3044
-192	6098.5768
-191	6277.5995
-190	6425.8979
-189	6783.0038
-188	6805.7868
-187	6694.8867
-186	6449.6652
-185	6521.7546
-184	6474.2166
-183	6439.8658
-182	6320.5729
-181	6204.9891
-180	6198.298
-179	6141.36
-178	6140.2369
-177	6119.8257
-176	6021.1949
-175	5906.599
-174	6190.763
-173	5794.0576
-172	5867.5199
-171	5860.6501
-170	6055.4569
-169	5876.3866
-168	6090.8154
-167	6135.2039
-166	6131.353
-165	6428.5195
-164	6153.8004
-163	6168.8123
-162	6236.7285
-161	6419.2938
-160	6591.1072
-159	6442.375
-158	6778.3489
-157	6588.5559
-156	6800.0043
-155	6655.2127
-154	6782.2946
-153	6634.0845
-152	6502.0837
-151	6339.9304
-150	6435.7964
-149	6258.3217
-148	6449.758
-147	6256.3236
-146	5975.4708
-145	6289.1473
-144	5957.8006
-143	6293.7449
-142	6396.681
-141	6317.1774
-140	6130.7726
-139	6301.6314
-138	6177.2476
-137	6252.9112
-136	6341.9568
-135	6573.5151
-134	6842.6552
-133	6646.5267
-132	6821.8861
-131	7011.2965
-130	7149.3058
-129	6901.2294
-128	7246.3613
-127	7089.1079
-126	7348.1643
-125	7202.0441
-124	7204.8266
-123	7306.3568
-122	6991.9958
-121	7294.6953
-120	6984.8629
-119	6736.6686
-118	6495.1181
-117	6521.0844
-116	6500.5053
-115	6351.1722
-114	6253.5128
-113	6181.783
-112	6686.8284
-111	6493.9463
-110	6792.7041
-109	6321.6389
-108	6558.5221
-107	6586.6142
-106	6744.74
-105	6784.3293
-104	6648.2613
-103	6881.2052
-102	6955.8102
-101	6957.6531
-100	7027.5774
-99	7719.1529
-98	7891.2864
-97	7721.8788
-96	7804.1128
-95	7819.8621
-94	8061.6247
-93	8087.8548
-92	8127.193
-91	7899.3248
-90	7856.631
-89	7524.8183
-88	7405.6387
-87	7376.8038
-86	7178.6901
-85	6911.6939
-84	6626.2353
-83	6616.0218
-82	6634.0993
-81	6758.3988
-80	6532.4895
-79	6796.8362
-78	6769.6624
-77	6869.6676
-76	6941.8912
-75	6878.7955
-74	7111.5673
-73	7264.3055
-72	7529.7152
-71	7821.361
-70	7890.3157
-69	8563.5028
-68	8519.5392
-67	8575.9581
-66	8971.5339
-65	8906.1069
-64	8929.4133
-63	9192.3346
-62	8903.5485
-61	9249.0274
-60	9425.0191
-59	8873.8417
-58	8733.3391
-57	8298.3851
-56	7926.4208
-55	7672.0535
-54	7638.6747
-53	6999.4326
-52	7184.7153
-51	7020.1602
-50	7034.5075
-49	6979.1138
-48	7093.7829
-47	7187.5109
-46	7165.8438
-45	7573.0438
-44	7733.697
-43	7531.7809
-42	7822.8456
-41	7887.6123
-40	8159.7092
-39	8557.0374
-38	8587.8144
-37	9213.7354
-36	9224.598
-35	10006.9106
-34	10244.99
-33	10464.5068
-32	10478.0037
-31	10830.0814
-30	11261.9637
-29	11226.5747
-28	10314.7831
-27	9821.0007
-26	9035.6818
-25	8416.186
-24	8419.7074
-23	8331.3477
-22	8230.2152
-21	8362.7713
-20	8374.1221
-19	8312.7591
-18	8141.3583
-17	8517.7378
-16	9079.781
-15	8841.2692
-14	9971.6984
-13	10705.694
-12	11287.8335
-11	12836.3334
-10	13167.7637
-9	15618.3911
-8	16443.7169
-7	18821.4553
-6	21359.6913
-5	24007.8983
-4	26826.4731
-3	31537.9206
-2	34658.5715
-1	38156.1408
0	222677.5819
1	38156.1408
2	34658.5715
3	31537.9206
4	26826.4731
5	24007.8983
6	21359.6913
7	18821.4553
8	16443.7169
9	15618.3911
10	13167.7637
11	12836.3334
12	11287.8335
13	10705.694
14	9971.6984
15	8841.2692
16	9079.781
17	8517.7378
18	8141.3583
19	8312.7591
20	8374.1221
21	8362.7713
22	8230.2152
23	8331.3477
24	8419.7074
25	8416.186
26	9035.6818
27	9821.0007
28	10314.7831
29	11226.5747
30	11261.9637
31	10830.0814
32	10478.0037
33	10464.5068
34	10244.99
35	10006.9106
36	9224.598
37	9213.7354
38	8587.8144
39	8557.0374
40	8159.7092
41	7887.6123
42	7822.8456
43	7531.7809
44	7733.697
45	7573.0438
46	7165.8438
47	7187.5109
48	7093.7829
49	6979.1138
50	7034.5075
51	7020.1602
52	7184.7153
53	6999.4326
54	7638.6747
55	7672.0535
56	7926.4208
57	8298.3851
58	8733.3391
59	8873.8417
60	9425.0191
61	9249.0274
62	8903.5485
63	9192.3346
64	8929.4133
65	8906.1069
66	8971.5339
67	8575.9581
68	8519.5392
69	8563.5028
70	7890.3157
71	7821.361
72	7529.7152
73	7264.3055
74	7111.5673
75	6878.7955
76	6941.8912
77	6869.6676
78	6769.6624
79	6796.8362
80	6532.4895
81	6758.3988
82	6634.0993
83	6616.0218
84	6626.2353
85	6911.6939
86	7178.6901
87	7376.8038
88	7405.6387
89	7524.8183
90	7856.631
91	7899.3248
92	8127.193
93	8087.8548
94	8061.6247
95	7819.8621
96	7804.1128
97	7721.8788
98	7891.2864
99	7719.1529
100	7027.5774
101	6957.6531
102	6955.8102
103	6881.2052
104	6648.2613
105	6784.3293
106	6744.74
107	6586.6142
108	6558.5221
109	6321.6389
110	6792.7041
111	6493.9463
112	6686.8284
113	6181.783
114	6253.5128
115	6351.1722
116	6500.5053
117	6521.0844
118	6495.1181
119	6736.6686
120	6984.8629
121	7294.6953
122	6991.9958
123	7306.3568
124	7204.8266
125	7202.0441
126	7348.1643
127	7089.1079
128	7246.3613
129	6901.2294
130	7149.3058
131	7011.2965
132	6821.8861
133	6646.5267
134	6842.6552
135	6573.5151
136	6341.9568
137	6252.9112
138	6177.2476
139	6301.6314
140	6130.7726
141	6317.1774
142	6396.681
143	6293.7449
144	5957.8006
145	6289.1473
146	5975.4708
147	6256.3236
148	6449.758
149	6258.3217
150	6435.7964
151	6339.9304
152	6502.0837
153	6634.0845
154	6782.2946
155	6655.2127
156	6800.0043
157	6588.5559
158	6778.3489
159	6442.375
160	6591.1072
161	6419.2938
162	6236.7285
163	6168.8123
164	6153.8004
165	6428.5195
166	6131.353
167	6135.2039
168	6090.8154
169	5876.3866
170	6055.4569
171	5860.6501
172	5867.5199
173	5794.0576
174	6190.763
175	5906.599
176	6021.1949
177	6119.8257
178	6140.2369
179	6141.36
180	6198.298
181	6204.9891
182	6320.5729
183	6439.8658
184	6474.2166
185	6521.7546
186	6449.6652
187	6694.8867
188	6805.7868
189	6783.0038
190	6425.8979
191	6277.5995
192	6098.5768
193	6193.3044
194	6389.2892
195	6102.267
196	5938.75
197	6222.2569
198	6066.3221
199	5891.7824
200	2937.4789
