Position	Value
-200	6467.1413
-199	13138.7937
-198	13418.242
-197	13588.5549
-196	13409.5576
-195	13942.0573
-194	13578.9602
-193	13681.5351
-192	13610.3953
-191	13297.2955
-190	13415.2344
-189	13467.9563
-188	13718.009
-187	13893.2946
-186	13976.4346
-185	14065.3655
-184	13872.2818
-183	13764.399
-182	13633.049
-181	13702.6084
-180	13718.5512
-179	13645.3452
-178	13608.2759
-177	13795.0046
-176	13626.7198
-175	13572.5641
-174	13834.0778
-173	13609.7367
-172	13294.6113
-171	13735.3826
-170	13413.8484
-169	13400.6824
-168	13609.5342
-167	13505.8986
-166	13622.9441
-165	13807.3265
-164	13675.5931
-163	13842.0178
-162	14195.4582
-161	13888.3162
-160	14034.3239
-159	14342.2545
-158	13973.7829
-157	14848.1159
-156	14685.8668
-155	14663.974
-154	15087.2115
-153	14649.1418
-152	14610.3981
-151	14635.4662
-150	14412.726
-149	14292.9618
-148	13985.461
-147	14352.4782
-146	14110.7806
-145	13802.7033
-144	14026.4897
-143	14189.7716
-142	13774.2612
-141	13826.8887
-140	14022.1159
-139	14010.5783
-138	14066.462
-137	14107.7793
-136	14047.27
-135	14613.3637
-134	14481.8838
-133	14236.9087
-132	14964.0107
-131	14889.2595
-130	15022.9835
-129	14943.5944
-128	15219.6738
-127	15476.1597
-126	15531.5091
-125	15421.8127
-124	15458.7263
-123	15836.4264
-122	15614.2788
-121	15625.9182
-120	15205.9031
-119	15077.6677
-118	14418.4165
-117	14736.4342
-116	14139.6439
-115	14276.6757
-114	14339.0205
-113	14040.1119
-112	14044.2255
-111	14441.3181
-110	14166.8916
-109	14229.4846
-108	14425.9794
-107	14602.0865
-106	14991.0104
-105	14899.552
-104	14983.2806
-103	15405.9747
-102	15787.8909
-101	15573.4462
-100	16044.788
-99	16111.1409
-98	16654.8269
-97	16526.1928
-96	16989.1019
-95	16808.8779
-94	17250.8588
-93	17473.6062
-92	17107.6904
-91	17339.4362
-90	16864.0036
-89	16342.8078
-88	16446.5107
-87	16300.8476
-86	15689.1557
-85	15476.7004
-84	15396.5608
-83	15249.9102
-82	15275.3281
-81	15148.9732
-80	15137.6962
-79	14908.7788
-78	15275.2998
-77	15176.1312
-76	15685.868
-75	15638.775
-74	15709.4278
-73	16081.6222
-72	16387.0403
-71	16613.7339
-70	16841.8276
-69	17782.1681
-68	17751.9791
-67	17941.2411
-66	18873.6944
-65	18901.3596
-64	19463.0698
-63	19244.3811
-62	19010.6141
-61	20077.0145
-60	19462.2474
-59	18987.2093
-58	18752.9089
-57	18538.4249
-56	17515.3363
-55	16919.3192
-54	17006.5064
-53	16172.8847
-52	16800.5231
-51	16696.1974
-50	16605.7093
-49	16550.799
-48	16584.098
-47	16623.3511
-46	16197.2196
-45	16896.8402
-44	16633.0315
-43	16770.0181
-42	17275.3737
-41	17374.5974
-40	18055.0537
-39	18251.5503
-38	18845.6895
-37	19389.671
-36	19821.0146
-35	21296.0963
-34	21023.5571
-33	22604.9116
-32	23020.555
-31	22532.2332
-30	25202.3186
-29	24377.8667
-28	22181.3451
-27	21275.4842
-26	19588.1924
-25	18792.7027
-24	19550.5011
-23	20063.2556
-22	20789.0201
-21	21171.7893
-20	21608.4179
-19	22074.3585
-18	22854.4142
-17	22801.6515
-16	23628.5412
-15	24071.8453
-14	24497.5425
-13	25419.2296
-12	27634.2788
-11	28181.1869
-10	29382.3915
-9	32290.9561
-8	32834.3747
-7	36076.6676
-6	37472.1682
-5	44325.8249
-4	46387.4273
-3	56428.4458
-2	59129.1349
-1	60994.7153
0	296900.4175
1	60994.7153
2	59129.1349
3	56428.4458
4	46387.4273
5	44325.8249
6	37472.1682
7	36076.6676
8	32834.3747
9	32290.9561
10	29382.3915
11	28181.1869
12	27634.2788
13	25419.2296
14	24497.5425
15	24071.8453
16	23628.5412
17	22801.6515
18	22854.4142
19	22074.3585
20	21608.4179
21	21171.7893
22	20789.0201
23	20063.2556
24	19550.5011
25	18792.7027
26	19588.1924
27	21275.4842
28	22181.3451
29	24377.8667
30	25202.3186
31	22532.2332
32	23020.555
33	22604.9116
34	21023.5571
35	21296.0963
36	19821.0146
37	19389.671
38	18845.6895
39	18251.5503
40	18055.0537
41	17374.5974
42	17275.3737
43	16770.0181
44	16633.0315
45	16896.8402
46	16197.2196
47	16623.3511
48	16584.098
49	16550.799
50	16605.7093
51	16696.1974
52	16800.5231
53	16172.8847
54	17006.5064
55	16919.3192
56	17515.3363
57	18538.4249
58	18752.9089
59	18987.2093
60	19462.2474
61	20077.0145
62	19010.6141
63	19244.3811
64	19463.0698
65	18901.3596
66	18873.6944
67	17941.2411
68	17751.9791
69	17782.1681
70	16841.8276
71	16613.7339
72	16387.0403
73	16081.6222
74	15709.4278
75	15638.775
76	15685.868
77	15176.1312
78	15275.2998
79	14908.7788
80	15137.6962
81	15148.9732
82	15275.3281
83	15249.9102
84	15396.5608
85	15476.7004
86	15689.1557
87	16300.8476
88	16446.5107
89	16342.8078
90	16864.0036
91	17339.4362
92	17107.6904
93	17473.6062
94	17250.8588
95	16808.8779
96	16989.1019
97	16526.1928
98	16654.8269
99	16111.1409
100	16044.788
101	15573.4462
102	15787.8909
103	15405.9747
104	14983.2806
105	14899.552
106	14991.0104
107	14602.0865
108	14425.9794
109	14229.4846
110	14166.8916
111	14441.3181
112	14044.2255
113	14040.1119
114	14339.0205
115	14276.6757
116	14139.6439
117	14736.4342
118	14418.4165
119	15077.6677
120	15205.9031
121	15625.9182
122	15614.2788
123	15836.4264
124	15458.7263
125	15421.8127
126	15531.5091
127	15476.1597
128	15219.6738
129	14943.5944
130	15022.9835
131	14889.2595
132	14964.0107
133	14236.9087
134	14481.8838
135	14613.3637
136	14047.27
137	14107.7793
138	14066.462
139	14010.5783
140	14022.1159
141	13826.8887
142	13774.2612
143	14189.7716
144	14026.4897
145	13802.7033
146	14110.7806
147	14352.4782
148	13985.461
149	14292.9618
150	14412.726
151	14635.4662
152	14610.3981
153	14649.1418
154	15087.2115
155	14663.974
156	14685.8668
157	14848.1159
158	13973.7829
159	14342.2545
160	14034.3239
161	13888.3162
162	14195.4582
163	13842.0178
164	13675.5931
165	13807.3265
166	13622.9441
167	13505.8986
168	13609.5342
169	13400.6824
170	13413.8484
171	13735.3826
172	13294.6113
173	13609.7367
174	13834.0778
175	13572.5641
176	13626.7198
177	13795.0046
178	13608.2759
179	13645.3452
180	13718.5512
181	13702.6084
182	13633.049
183	13764.399
184	13872.2818
185	14065.3655
186	13976.4346
187	13893.2946
188	13718.009
189	13467.9563
190	13415.2344
191	13297.2955
192	13610.3953
193	13681.5351
194	13578.9602
195	13942.0573
196	13409.5576
197	13588.5549
198	13418.242
199	13138.7937
200	6467.1413
