Position	Value
-200	7535.8132
-199	14935.0175
-198	15440.4222
-197	15137.5563
-196	15320.5129
-195	15261.867
-194	15491.5343
-193	15761.1344
-192	15671.7969
-191	15494.564
-190	15538.1306
-189	15311.1869
-188	15438.5545
-187	15673.6571
-186	15761.0555
-185	15632.6628
-184	15433.4201
-183	16025.6463
-182	15645.2848
-181	15625.3653
-180	15316.692
-179	15736.3402
-178	15669.9013
-177	15188.9978
-176	15436.4146
-175	15479.1906
-174	16187.9532
-173	15639.9484
-172	15460.4653
-171	15690.7776
-170	15744.1895
-169	15555.1052
-168	15434.3512
-167	15877.0812
-166	15941.6045
-165	15905.3966
-164	15967.0051
-163	16144.8797
-162	15946.9399
-161	15544.6676
-160	16037.5789
-159	16012.8201
-158	15983.2652
-157	16471.5375
-156	16636.6236
-155	16363.0229
-154	16453.2447
-153	16539.7369
-152	16190.4066
-151	16027.3448
-150	16581.5421
-149	15294.4064
-148	15867.4666
-147	15853.7352
-146	15540.1364
-145	15831.8103
-144	15972.8082
-143	16517.8503
-142	16278.5001
-141	16278.4855
-140	16137.0558
-139	16445.7582
-138	16709.8777
-137	16858.937
-136	16738.3417
-135	17530.7643
-134	17425.9015
-133	16652.9775
-132	17442.8175
-131	17456.2727
-130	16911.6692
-129	17087.0414
-128	17144.7303
-127	17013.253
-126	17507.7056
-125	17117.372
-124	17090.3644
-123	17577.8935
-122	16915.8893
-121	17047.8043
-120	17295.8246
-119	16426.8917
-118	16516.8117
-117	16388.5495
-116	16164.1649
-115	16156.6775
-114	16526.4263
-113	15934.7254
-112	16603.4051
-111	16669.6023
-110	16640.2771
-109	16385.1194
-108	16752.8444
-107	16633.302
-106	16892.6392
-105	17500.6799
-104	17425.4505
-103	17492.8616
-102	18420.8461
-101	18513.4304
-100	18273.7082
-99	19044.3104
-98	19393.0998
-97	18887.2219
-96	18929.6664
-95	19400.9363
-94	19088.609
-93	19962.4878
-92	19533.439
-91	19165.9477
-90	18762.8924
-89	18567.0153
-88	18041.1331
-87	18138.5849
-86	17815.9517
-85	17501.2445
-84	17678.4417
-83	17475.005
-82	17539.5599
-81	17707.3163
-80	17723.2002
-79	17802.007
-78	17752.1852
-77	17887.024
-76	18397.3706
-75	18673.8669
-74	18763.8865
-73	19040.8137
-72	18981.547
-71	19800.5764
-70	19882.5093
-69	20985.3332
-68	20860.6973
-67	20752.7995
-66	21840.6318
-65	21488.1343
-64	22188.8811
-63	22261.7436
-62	22099.9643
-61	22962.7698
-60	23061.3658
-59	21641.8554
-58	20877.9544
-57	20828.4347
-56	20684.7156
-55	20087.5436
-54	20119.5867
-53	19447.5357
-52	19822.2305
-51	19755.5027
-50	20153.7332
-49	19740.1639
-48	20416.8372
-47	19863.9061
-46	20014.9216
-45	20906.1218
-44	20231.5539
-43	20773.5961
-42	21318.7516
-41	21381.54
-40	21866.1631
-39	22812.9216
-38	22986.3875
-37	23881.6988
-36	24446.7279
-35	25473.2794
-34	25984.0591
-33	26712.8524
-32	27385.3068
-31	27134.5413
-30	28564.6932
-29	27366.0501
-28	27016.1057
-27	26113.7883
-26	24714.255
-25	24054.8542
-24	24337.3999
-23	24507.3389
-22	25289.5402
-21	25964.5976
-20	25496.9244
-19	25994.1929
-18	26841.549
-17	27066.8046
-16	28299.5106
-15	29378.2696
-14	29605.2358
-13	31651.3855
-12	35026.0126
-11	35914.2555
-10	37271.3591
-9	42619.2599
-8	43012.4442
-7	48103.9054
-6	53887.7506
-5	61634.8401
-4	64694.8908
-3	77073.9922
-2	77562.9337
-1	82181.9662
0	465833.3276
1	82181.9662
2	77562.9337
3	77073.9922
4	64694.8908
5	61634.8401
6	53887.7506
7	48103.9054
8	43012.4442
9	42619.2599
10	37271.3591
11	35914.2555
12	35026.0126
13	31651.3855
14	29605.2358
15	29378.2696
16	28299.5106
17	27066.8046
18	26841.549
19	25994.1929
20	25496.9244
21	25964.5976
22	25289.5402
23	24507.3389
24	24337.3999
25	24054.8542
26	24714.255
27	26113.7883
28	27016.1057
29	27366.0501
30	28564.6932
31	27134.5413
32	27385.3068
33	26712.8524
34	25984.0591
35	25473.2794
36	24446.7279
37	23881.6988
38	22986.3875
39	22812.9216
40	21866.1631
41	21381.54
42	21318.7516
43	20773.5961
44	20231.5539
45	20906.1218
46	20014.9216
47	19863.9061
48	20416.8372
49	19740.1639
50	20153.7332
51	19755.5027
52	19822.2305
53	19447.5357
54	20119.5867
55	20087.5436
56	20684.7156
57	20828.4347
58	20877.9544
59	21641.8554
60	23061.3658
61	22962.7698
62	22099.9643
63	22261.7436
64	22188.8811
65	21488.1343
66	21840.6318
67	20752.7995
68	20860.6973
69	20985.3332
70	19882.5093
71	19800.5764
72	18981.547
73	19040.8137
74	18763.8865
75	18673.8669
76	18397.3706
77	17887.024
78	17752.1852
79	17802.007
80	17723.2002
81	17707.3163
82	17539.5599
83	17475.005
84	17678.4417
85	17501.2445
86	17815.9517
87	18138.5849
88	18041.1331
89	18567.0153
90	18762.8924
91	19165.9477
92	19533.439
93	19962.4878
94	19088.609
95	19400.9363
96	18929.6664
97	18887.2219
98	19393.0998
99	19044.3104
100	18273.7082
101	18513.4304
102	18420.8461
103	17492.8616
104	17425.4505
105	17500.6799
106	16892.6392
107	16633.302
108	16752.8444
109	16385.1194
110	16640.2771
111	16669.6023
112	16603.4051
113	15934.7254
114	16526.4263
115	16156.6775
116	16164.1649
117	16388.5495
118	16516.8117
119	16426.8917
120	17295.8246
121	17047.8043
122	16915.8893
123	17577.8935
124	17090.3644
125	17117.372
126	17507.7056
127	17013.253
128	17144.7303
129	17087.0414
130	16911.6692
131	17456.2727
132	17442.8175
133	16652.9775
134	17425.9015
135	17530.7643
136	16738.3417
137	16858.937
138	16709.8777
139	16445.7582
140	16137.0558
141	16278.4855
142	16278.5001
143	16517.8503
144	15972.8082
145	15831.8103
146	15540.1364
147	15853.7352
148	15867.4666
149	15294.4064
150	16581.5421
151	16027.3448
152	16190.4066
153	16539.7369
154	16453.2447
155	16363.0229
156	16636.6236
157	16471.5375
158	15983.2652
159	16012.8201
160	16037.5789
161	15544.6676
162	15946.9399
163	16144.8797
164	15967.0051
165	15905.3966
166	15941.6045
167	15877.0812
168	15434.3512
169	15555.1052
170	15744.1895
171	15690.7776
172	15460.4653
173	15639.9484
174	16187.9532
175	15479.1906
176	15436.4146
177	15188.9978
178	15669.9013
179	15736.3402
180	15316.692
181	15625.3653
182	15645.2848
183	16025.6463
184	15433.4201
185	15632.6628
186	15761.0555
187	15673.6571
188	15438.5545
189	15311.1869
190	15538.1306
191	15494.564
192	15671.7969
193	15761.1344
194	15491.5343
195	15261.867
196	15320.5129
197	15137.5563
198	15440.4222
199	14935.0175
200	7535.8132
