Position	Value
-200	6005.0158
-199	12166.0795
-198	12022.3028
-197	12280.5118
-196	12333.9891
-195	12055.764
-194	12804.4694
-193	12788.4923
-192	13002.5006
-191	13057.3187
-190	13386.7922
-189	12935.7857
-188	13398.6207
-187	13177.7351
-186	13214.903
-185	13442.3077
-184	13181.8955
-183	13169.3721
-182	12981.546
-181	12872.0898
-180	12788.9405
-179	12891.7821
-178	13362.93
-177	12564.8087
-176	12952.4164
-175	12668.0332
-174	12749.8463
-173	12715.4463
-172	12818.9177
-171	12886.543
-170	12204.6801
-169	12477.5934
-168	13002.202
-167	12460.6857
-166	13248.6939
-165	13313.0804
-164	13445.816
-163	13560.2079
-162	13775.3596
-161	13674.7127
-160	13606.6374
-159	14149.1424
-158	14000.6171
-157	14064.8371
-156	14506.9659
-155	14194.4436
-154	13601.8977
-153	14287.4144
-152	13690.331
-151	13631.7667
-150	13873.677
-149	14078.6799
-148	13097.6543
-147	13233.7216
-146	13178.5142
-145	13161.6702
-144	13106.2125
-143	12994.3046
-142	12980.6039
-141	13244.279
-140	13203.0255
-139	13671.6485
-138	13218.1492
-137	13456.8308
-136	13606.1866
-135	14193.6368
-134	13646.5427
-133	14094.4771
-132	14601.8233
-131	15037.8113
-130	14857.8026
-129	14675.5589
-128	15414.1697
-127	15923.359
-126	15588.0774
-125	15839.9926
-124	15639.4396
-123	15919.8798
-122	15796.0677
-121	15946.1181
-120	15692.4893
-119	15687.3523
-118	14819.6824
-117	15147.2407
-116	14175.1071
-115	14612.3145
-114	14116.7824
-113	14135.1868
-112	14066.8777
-111	13885.3136
-110	14847.8028
-109	13888.7546
-108	14374.5986
-107	14453.6452
-106	14547.4159
-105	14875.4361
-104	14729.7316
-103	16525.239
-102	15434.8357
-101	15561.9196
-100	16164.4693
-99	17151.7571
-98	17555.2001
-97	17109.8144
-96	17287.7574
-95	18431.4899
-94	17785.1847
-93	18023.0851
-92	18195.5319
-91	17945.6585
-90	17476.0455
-89	17123.1833
-88	16423.9707
-87	16494.1727
-86	15914.6568
-85	15790.5212
-84	14650.1947
-83	14876.9232
-82	14678.9317
-81	14658.6538
-80	14555.0835
-79	15068.5572
-78	14860.2049
-77	14955.2667
-76	15094.8277
-75	14833.5798
-74	14951.9915
-73	15940.6237
-72	15856.7015
-71	16760.4422
-70	17444.5092
-69	17938.0352
-68	17848.4132
-67	18742.0794
-66	19503.7162
-65	19217.1457
-64	20045.5073
-63	20187.5945
-62	20062.2331
-61	20717.517
-60	20175.2334
-59	19965.9872
-58	19051.0183
-57	18301.5835
-56	17686.2681
-55	17022.2222
-54	16960.5469
-53	16243.4453
-52	16025.0071
-51	15097.6518
-50	16062.0704
-49	15641.2419
-48	15292.2259
-47	15857.0222
-46	15835.613
-45	16493.739
-44	16318.1346
-43	16284.4953
-42	16922.9222
-41	17528.8298
-40	18133.2248
-39	19397.31
-38	19781.444
-37	20664.7639
-36	21451.7228
-35	22188.5983
-34	23117.4602
-33	23848.9505
-32	25565.1848
-31	25322.9619
-30	26058.292
-29	26116.1809
-28	22910.8197
-27	22051.5122
-26	20054.6731
-25	20667.9103
-24	20174.2223
-23	19803.0389
-22	18790.2205
-21	19247.2849
-20	19655.6819
-19	19515.2015
-18	19821.3038
-17	18949.2606
-16	20144.7527
-15	19519.921
-14	21151.3678
-13	21870.5428
-12	24036.9729
-11	23784.7525
-10	24586.6415
-9	27009.3957
-8	27895.3921
-7	31083.2009
-6	30993.1652
-5	36259.1552
-4	37801.7411
-3	41151.1516
-2	38725.547
-1	34194.4029
0	232058.7498
1	34194.4029
2	38725.547
3	41151.1516
4	37801.7411
5	36259.1552
6	30993.1652
7	31083.2009
8	27895.3921
9	27009.3957
10	24586.6415
11	23784.7525
12	24036.9729
13	21870.5428
14	21151.3678
15	19519.921
16	20144.7527
17	18949.2606
18	19821.3038
19	19515.2015
20	19655.6819
21	19247.2849
22	18790.2205
23	19803.0389
24	20174.2223
25	20667.9103
26	20054.6731
27	22051.5122
28	22910.8197
29	26116.1809
30	26058.292
31	25322.9619
32	25565.1848
33	23848.9505
34	23117.4602
35	22188.5983
36	21451.7228
37	20664.7639
38	19781.444
39	19397.31
40	18133.2248
41	17528.8298
42	16922.9222
43	16284.4953
44	16318.1346
45	16493.739
46	15835.613
47	15857.0222
48	15292.2259
49	15641.2419
50	16062.0704
51	15097.6518
52	16025.0071
53	16243.4453
54	16960.5469
55	17022.2222
56	17686.2681
57	18301.5835
58	19051.0183
59	19965.9872
60	20175.2334
61	20717.517
62	20062.2331
63	20187.5945
64	20045.5073
65	19217.1457
66	19503.7162
67	18742.0794
68	17848.4132
69	17938.0352
70	17444.5092
71	16760.4422
72	15856.7015
73	15940.6237
74	14951.9915
75	14833.5798
76	15094.8277
77	14955.2667
78	14860.2049
79	15068.5572
80	14555.0835
81	14658.6538
82	14678.9317
83	14876.9232
84	14650.1947
85	15790.5212
86	15914.6568
87	16494.1727
88	16423.9707
89	17123.1833
90	17476.0455
91	17945.6585
92	18195.5319
93	18023.0851
94	17785.1847
95	18431.4899
96	17287.7574
97	17109.8144
98	17555.2001
99	17151.7571
100	16164.4693
101	15561.9196
102	15434.8357
103	16525.239
104	14729.7316
105	14875.4361
106	14547.4159
107	14453.6452
108	14374.5986
109	13888.7546
110	14847.8028
111	13885.3136
112	14066.8777
113	14135.1868
114	14116.7824
115	14612.3145
116	14175.1071
117	15147.2407
118	14819.6824
119	15687.3523
120	15692.4893
121	15946.1181
122	15796.0677
123	15919.8798
124	15639.4396
125	15839.9926
126	15588.0774
127	15923.359
128	15414.1697
129	14675.5589
130	14857.8026
131	15037.8113
132	14601.8233
133	14094.4771
134	13646.5427
135	14193.6368
136	13606.1866
137	13456.8308
138	13218.1492
139	13671.6485
140	13203.0255
141	13244.279
142	12980.6039
143	12994.3046
144	13106.2125
145	13161.6702
146	13178.5142
147	13233.7216
148	13097.6543
149	14078.6799
150	13873.677
151	13631.7667
152	13690.331
153	14287.4144
154	13601.8977
155	14194.4436
156	14506.9659
157	14064.8371
158	14000.6171
159	14149.1424
160	13606.6374
161	13674.7127
162	13775.3596
163	13560.2079
164	13445.816
165	13313.0804
166	13248.6939
167	12460.6857
168	13002.202
169	12477.5934
170	12204.6801
171	12886.543
172	12818.9177
173	12715.4463
174	12749.8463
175	12668.0332
176	12952.4164
177	12564.8087
178	13362.93
179	12891.7821
180	12788.9405
181	12872.0898
182	12981.546
183	13169.3721
184	13181.8955
185	13442.3077
186	13214.903
187	13177.7351
188	13398.6207
189	12935.7857
190	13386.7922
191	13057.3187
192	13002.5006
193	12788.4923
194	12804.4694
195	12055.764
196	12333.9891
197	12280.5118
198	12022.3028
199	12166.0795
200	6005.0158
