Position	Value
-200	9352.679
-199	18669.1117
-198	18248.067
-197	18677.45
-196	18459.5642
-195	18558.218
-194	18800.3816
-193	18486.1126
-192	19009.6793
-191	18726.5225
-190	19156.8664
-189	18559.9293
-188	18873.2409
-187	18370.8787
-186	18375.6924
-185	18486.5644
-184	18253.5572
-183	18493.4971
-182	18670.4274
-181	18234.3779
-180	18567.712
-179	18635.6744
-178	18628.622
-177	18214.8916
-176	18398.113
-175	18045.4906
-174	19269.3848
-173	18102.7532
-172	18349.8927
-171	18418.5807
-170	18255.8554
-169	18213.9208
-168	18355.6412
-167	18337.9568
-166	18090.3852
-165	18680.1722
-164	18523.6112
-163	18885.831
-162	18907.9034
-161	19157.3378
-160	19194.3771
-159	19288.0401
-158	19306.9616
-157	19240.9616
-156	19641.2395
-155	18935.1017
-154	19256.9443
-153	19579.7058
-152	19656.9651
-151	19718.2492
-150	19836.7808
-149	19582.7152
-148	19780.6649
-147	19553.3216
-146	19226.9248
-145	19373.451
-144	19159.9577
-143	19439.6137
-142	19334.8327
-141	19363.6045
-140	19214.6005
-139	19413.3904
-138	19546.9774
-137	19280.8458
-136	19813.8692
-135	20342.88
-134	20217.2769
-133	20069.0965
-132	20377.033
-131	20143.3595
-130	19996.1681
-129	20194.0018
-128	20776.0943
-127	20574.9984
-126	20899.0855
-125	20394.9353
-124	20447.4436
-123	21201.8603
-122	20321.3397
-121	20894.7052
-120	20433.6469
-119	20518.2936
-118	20128.9705
-117	20140.0614
-116	20531.8225
-115	20443.3031
-114	20178.6326
-113	20268.2958
-112	20029.9847
-111	20280.9217
-110	20021.1478
-109	19637.0716
-108	19788.1815
-107	20183.3502
-106	20214.9043
-105	20298.8086
-104	20336.7741
-103	20471.5241
-102	21165.6247
-101	21095.2497
-100	20717.3419
-99	21747.0886
-98	21641.2836
-97	21612.4313
-96	21599.3919
-95	21798.3378
-94	21776.4687
-93	22499.7477
-92	22034.2462
-91	22195.497
-90	22073.3814
-89	21893.9479
-88	21521.072
-87	22454.4207
-86	22143.2212
-85	22009.2598
-84	21313.0674
-83	21378.427
-82	21451.2684
-81	21229.9634
-80	20680.5387
-79	21245.7349
-78	21672.5275
-77	21077.7664
-76	21576.0963
-75	21651.1657
-74	21386.1726
-73	21679.3429
-72	21798.68
-71	22171.811
-70	22550.653
-69	22791.2703
-68	22692.0277
-67	22444.2357
-66	22984.8968
-65	22741.3809
-64	23500.736
-63	23403.8338
-62	23769.4846
-61	24295.0495
-60	24195.6364
-59	23795.4055
-58	23401.6273
-57	23662.3054
-56	23491.231
-55	23085.9762
-54	23425.4607
-53	23148.288
-52	23615.5994
-51	23591.0747
-50	23532.6716
-49	23464.4798
-48	23652.8939
-47	23973.9137
-46	23733.581
-45	24501.1865
-44	24199.6618
-43	24233.3714
-42	24084.7885
-41	23978.8351
-40	24736.9709
-39	25762.0894
-38	25765.5173
-37	26270.1574
-36	26457.5866
-35	27631.9382
-34	27706.1095
-33	28648.1541
-32	28878.7917
-31	29193.4351
-30	30479.5982
-29	31145.163
-28	30786.1154
-27	29825.4601
-26	28347.1672
-25	27706.3977
-24	27383.2855
-23	26547.5737
-22	25624.5432
-21	26081.1524
-20	26695.5673
-19	27068.8012
-18	27964.9032
-17	28364.4806
-16	29446.2839
-15	30037.4547
-14	31309.8833
-13	33474.2036
-12	36444.0921
-11	38731.83
-10	41982.1201
-9	46751.993
-8	50104.6064
-7	55304.4976
-6	61002.7324
-5	69939.6829
-4	79535.901
-3	91642.8312
-2	98604.7699
-1	110882.7667
0	409747.2788
1	110882.7667
2	98604.7699
3	91642.8312
4	79535.901
5	69939.6829
6	61002.7324
7	55304.4976
8	50104.6064
9	46751.993
10	41982.1201
11	38731.83
12	36444.0921
13	33474.2036
14	31309.8833
15	30037.4547
16	29446.2839
17	28364.4806
18	27964.9032
19	27068.8012
20	26695.5673
21	26081.1524
22	25624.5432
23	26547.5737
24	27383.2855
25	27706.3977
26	28347.1672
27	29825.4601
28	30786.1154
29	31145.163
30	30479.5982
31	29193.4351
32	28878.7917
33	28648.1541
34	27706.1095
35	27631.9382
36	26457.5866
37	26270.1574
38	25765.5173
39	25762.0894
40	24736.9709
41	23978.8351
42	24084.7885
43	24233.3714
44	24199.6618
45	24501.1865
46	23733.581
47	23973.9137
48	23652.8939
49	23464.4798
50	23532.6716
51	23591.0747
52	23615.5994
53	23148.288
54	23425.4607
55	23085.9762
56	23491.231
57	23662.3054
58	23401.6273
59	23795.4055
60	24195.6364
61	24295.0495
62	23769.4846
63	23403.8338
64	23500.736
65	22741.3809
66	22984.8968
67	22444.2357
68	22692.0277
69	22791.2703
70	22550.653
71	22171.811
72	21798.68
73	21679.3429
74	21386.1726
75	21651.1657
76	21576.0963
77	21077.7664
78	21672.5275
79	21245.7349
80	20680.5387
81	21229.9634
82	21451.2684
83	21378.427
84	21313.0674
85	22009.2598
86	22143.2212
87	22454.4207
88	21521.072
89	21893.9479
90	22073.3814
91	22195.497
92	22034.2462
93	22499.7477
94	21776.4687
95	21798.3378
96	21599.3919
97	21612.4313
98	21641.2836
99	21747.0886
100	20717.3419
101	21095.2497
102	21165.6247
103	20471.5241
104	20336.7741
105	20298.8086
106	20214.9043
107	20183.3502
108	19788.1815
109	19637.0716
110	20021.1478
111	20280.9217
112	20029.9847
113	20268.2958
114	20178.6326
115	20443.3031
116	20531.8225
117	20140.0614
118	20128.9705
119	20518.2936
120	20433.6469
121	20894.7052
122	20321.3397
123	21201.8603
124	20447.4436
125	20394.9353
126	20899.0855
127	20574.9984
128	20776.0943
129	20194.0018
130	19996.1681
131	20143.3595
132	20377.033
133	20069.0965
134	20217.2769
135	20342.88
136	19813.8692
137	19280.8458
138	19546.9774
139	19413.3904
140	19214.6005
141	19363.6045
142	19334.8327
143	19439.6137
144	19159.9577
145	19373.451
146	19226.9248
147	19553.3216
148	19780.6649
149	19582.7152
150	19836.7808
151	19718.2492
152	19656.9651
153	19579.7058
154	19256.9443
155	18935.1017
156	19641.2395
157	19240.9616
158	19306.9616
159	19288.0401
160	19194.3771
161	19157.3378
162	18907.9034
163	18885.831
164	18523.6112
165	18680.1722
166	18090.3852
167	18337.9568
168	18355.6412
169	18213.9208
170	18255.8554
171	18418.5807
172	18349.8927
173	18102.7532
174	19269.3848
175	18045.4906
176	18398.113
177	18214.8916
178	18628.622
179	18635.6744
180	18567.712
181	18234.3779
182	18670.4274
183	18493.4971
184	18253.5572
185	18486.5644
186	18375.6924
187	18370.8787
188	18873.2409
189	18559.9293
190	19156.8664
191	18726.5225
192	19009.6793
193	18486.1126
194	18800.3816
195	18558.218
196	18459.5642
197	18677.45
198	18248.067
199	18669.1117
200	9352.679
