Position	Value
-200	30926.9083
-199	61507.5642
-198	62718.0708
-197	62949.9622
-196	63360.948
-195	63759.6083
-194	63956.2804
-193	63883.8583
-192	63691.5593
-191	63966.9134
-190	63833.1181
-189	65424.788
-188	64763.7047
-187	64747.1465
-186	64403.7876
-185	63714.0512
-184	64053.6541
-183	64302.7799
-182	63503.5338
-181	63354.8526
-180	63994.8131
-179	63572.3026
-178	62167.4716
-177	63312.0136
-176	63048.6033
-175	63723.0302
-174	63608.9031
-173	63997.5843
-172	64651.8538
-171	64199.6933
-170	64485.9418
-169	64921.8619
-168	64343.5572
-167	65048.6023
-166	64978.244
-165	66218.8241
-164	65258.0298
-163	65654.2457
-162	66078.1976
-161	66623.914
-160	65405.1382
-159	67055.5006
-158	67098.2685
-157	66064.9195
-156	67587.582
-155	66508.5885
-154	66665.0029
-153	66546.317
-152	66975.4548
-151	66257.3391
-150	66493.6631
-149	66389.6929
-148	65565.4717
-147	65333.4101
-146	65392.9812
-145	64411.8922
-144	65427.3547
-143	65925.3873
-142	65744.8518
-141	65575.7933
-140	65210.5568
-139	66304.5432
-138	65906.0035
-137	66114.7491
-136	67294.088
-135	68833.6946
-134	68002.7969
-133	68247.5721
-132	68844.4863
-131	68753.4755
-130	69619.0105
-129	69998.6324
-128	70006.8404
-127	70305.2146
-126	70698.2447
-125	70180.88
-124	70018.6787
-123	70901.9584
-122	70249.9361
-121	69480.5212
-120	68848.4813
-119	68198.5643
-118	67485.268
-117	67824.0722
-116	67192.8906
-115	67509.242
-114	66274.1425
-113	66509.6947
-112	66907.4808
-111	67286.8597
-110	67948.0122
-109	67637.6025
-108	67385.4322
-107	67970.6795
-106	67822.4064
-105	67845.5899
-104	69580.9256
-103	69714.795
-102	70587.1217
-101	70853.3635
-100	71405.3451
-99	72242.2998
-98	73867.1182
-97	73106.1501
-96	73379.2233
-95	73745.6164
-94	73438.1424
-93	74737.6823
-92	72972.174
-91	72303.9657
-90	71951.608
-89	71548.8242
-88	70037.9669
-87	69570.3209
-86	69707.7291
-85	69750.9772
-84	68221.0414
-83	67794.4207
-82	67975.062
-81	69032.8464
-80	68317.2073
-79	68828.5614
-78	68799.6108
-77	69427.9059
-76	70077.9849
-75	70540.0843
-74	70401.2476
-73	71594.2434
-72	72478.3417
-71	73681.556
-70	74425.6418
-69	76000.7395
-68	77816.1874
-67	78455.3329
-66	80047.4892
-65	80765.6198
-64	81646.2312
-63	82692.3092
-62	81477.3105
-61	81650.1604
-60	81204.3541
-59	78090.6232
-58	76730.2352
-57	75496.3497
-56	73044.9274
-55	71286.0364
-54	72562.2911
-53	69911.065
-52	69967.3311
-51	70228.107
-50	70665.9851
-49	70020.0118
-48	69382.6789
-47	69865.1914
-46	70557.7241
-45	70654.9951
-44	70489.8441
-43	71617.7383
-42	72819.9534
-41	73584.2658
-40	73710.1989
-39	75859.702
-38	77716.8174
-37	78793.5925
-36	80956.2717
-35	83535.9553
-34	85450.449
-33	88218.3554
-32	89913.8124
-31	91996.7112
-30	94435.9701
-29	89691.5086
-28	80543.8938
-27	76044.9609
-26	73793.1127
-25	74678.7759
-24	76519.8992
-23	79201.1887
-22	79625.1184
-21	82719.7255
-20	81956.3835
-19	83044.5495
-18	87039.1241
-17	87432.5184
-16	89000.8198
-15	92031.983
-14	95112.1265
-13	100101.873
-12	109435.5481
-11	117305.3838
-10	121842.8684
-9	129648.6061
-8	137880.7286
-7	155050.7341
-6	163398.2641
-5	194702.7716
-4	203387.6722
-3	227700.6959
-2	258722.2631
-1	253544.5556
0	1673051.3463
1	253544.5556
2	258722.2631
3	227700.6959
4	203387.6722
5	194702.7716
6	163398.2641
7	155050.7341
8	137880.7286
9	129648.6061
10	121842.8684
11	117305.3838
12	109435.5481
13	100101.873
14	95112.1265
15	92031.983
16	89000.8198
17	87432.5184
18	87039.1241
19	83044.5495
20	81956.3835
21	82719.7255
22	79625.1184
23	79201.1887
24	76519.8992
25	74678.7759
26	73793.1127
27	76044.9609
28	80543.8938
29	89691.5086
30	94435.9701
31	91996.7112
32	89913.8124
33	88218.3554
34	85450.449
35	83535.9553
36	80956.2717
37	78793.5925
38	77716.8174
39	75859.702
40	73710.1989
41	73584.2658
42	72819.9534
43	71617.7383
44	70489.8441
45	70654.9951
46	70557.7241
47	69865.1914
48	69382.6789
49	70020.0118
50	70665.9851
51	70228.107
52	69967.3311
53	69911.065
54	72562.2911
55	71286.0364
56	73044.9274
57	75496.3497
58	76730.2352
59	78090.6232
60	81204.3541
61	81650.1604
62	81477.3105
63	82692.3092
64	81646.2312
65	80765.6198
66	80047.4892
67	78455.3329
68	77816.1874
69	76000.7395
70	74425.6418
71	73681.556
72	72478.3417
73	71594.2434
74	70401.2476
75	70540.0843
76	70077.9849
77	69427.9059
78	68799.6108
79	68828.5614
80	68317.2073
81	69032.8464
82	67975.062
83	67794.4207
84	68221.0414
85	69750.9772
86	69707.7291
87	69570.3209
88	70037.9669
89	71548.8242
90	71951.608
91	72303.9657
92	72972.174
93	74737.6823
94	73438.1424
95	73745.6164
96	73379.2233
97	73106.1501
98	73867.1182
99	72242.2998
100	71405.3451
101	70853.3635
102	70587.1217
103	69714.795
104	69580.9256
105	67845.5899
106	67822.4064
107	67970.6795
108	67385.4322
109	67637.6025
110	67948.0122
111	67286.8597
112	66907.4808
113	66509.6947
114	66274.1425
115	67509.242
116	67192.8906
117	67824.0722
118	67485.268
119	68198.5643
120	68848.4813
121	69480.5212
122	70249.9361
123	70901.9584
124	70018.6787
125	70180.88
126	70698.2447
127	70305.2146
128	70006.8404
129	69998.6324
130	69619.0105
131	68753.4755
132	68844.4863
133	68247.5721
134	68002.7969
135	68833.6946
136	67294.088
137	66114.7491
138	65906.0035
139	66304.5432
140	65210.5568
141	65575.7933
142	65744.8518
143	65925.3873
144	65427.3547
145	64411.8922
146	65392.9812
147	65333.4101
148	65565.4717
149	66389.6929
150	66493.6631
151	66257.3391
152	66975.4548
153	66546.317
154	66665.0029
155	66508.5885
156	67587.582
157	66064.9195
158	67098.2685
159	67055.5006
160	65405.1382
161	66623.914
162	66078.1976
163	65654.2457
164	65258.0298
165	66218.8241
166	64978.244
167	65048.6023
168	64343.5572
169	64921.8619
170	64485.9418
171	64199.6933
172	64651.8538
173	63997.5843
174	63608.9031
175	63723.0302
176	63048.6033
177	63312.0136
178	62167.4716
179	63572.3026
180	63994.8131
181	63354.8526
182	63503.5338
183	64302.7799
184	64053.6541
185	63714.0512
186	64403.7876
187	64747.1465
188	64763.7047
189	65424.788
190	63833.1181
191	63966.9134
192	63691.5593
193	63883.8583
194	63956.2804
195	63759.6083
196	63360.948
197	62949.9622
198	62718.0708
199	61507.5642
200	30926.9083
