Position	Value
-200	6434.1249
-199	13161.1084
-198	12978.5263
-197	13149.9773
-196	12926.2124
-195	13182.1152
-194	13043.17
-193	13262.4841
-192	13083.594
-191	13354.8389
-190	13484.0279
-189	13362.3849
-188	13508.0669
-187	13299.8736
-186	13362.601
-185	13378.3135
-184	13119.429
-183	13532.5767
-182	13066.642
-181	12958.3576
-180	13177.6003
-179	13136.4375
-178	13095.578
-177	12785.909
-176	12915.3985
-175	13206.5684
-174	13495.9272
-173	12736.8204
-172	12836.7795
-171	12937.0142
-170	13228.1715
-169	13042.3238
-168	13076.5302
-167	13556.7993
-166	13411.5323
-165	13816.2378
-164	13618.6726
-163	13711.2987
-162	13636.7721
-161	13839.2248
-160	13663.6503
-159	14222.0896
-158	14053.0047
-157	14095.4771
-156	14299.872
-155	14009.0823
-154	14326.6837
-153	14214.3927
-152	14203.6158
-151	14144.9231
-150	14262.8004
-149	13876.3397
-148	13644.6271
-147	13731.4235
-146	13829.8086
-145	13531.0034
-144	13544.4068
-143	13627.7099
-142	13922.5134
-141	13892.0322
-140	13527.9856
-139	13757.2228
-138	13822.2927
-137	13618.8785
-136	14240.522
-135	14298.0084
-134	14271.5115
-133	14346.0185
-132	14425.4397
-131	14581.2499
-130	14462.8797
-129	14593.5813
-128	14528.4045
-127	14818.966
-126	14546.4325
-125	14860.1744
-124	14762.6415
-123	14787.382
-122	14798.0788
-121	14722.2656
-120	14561.6708
-119	14431.6263
-118	14010.0557
-117	14145.8101
-116	14148.6117
-115	13944.2639
-114	13653.726
-113	13518.5695
-112	13705.9468
-111	13574.1015
-110	13970.6967
-109	13705.8358
-108	14092.6215
-107	13575.7752
-106	14032.9259
-105	13909.1763
-104	14096.3975
-103	14276.8266
-102	14713.922
-101	14626.9851
-100	14512.4318
-99	14929.4144
-98	15210.4212
-97	15261.727
-96	15154.5199
-95	15501.2991
-94	15397.9237
-93	15795.4196
-92	15393.5973
-91	15438.5567
-90	15121.0167
-89	14960.1996
-88	14469.045
-87	14754.1948
-86	14293.0108
-85	14342.0665
-84	13892.8686
-83	14021.503
-82	13892.4931
-81	13983.1299
-80	13846.0908
-79	13863.0343
-78	14030.7485
-77	14067.8355
-76	14211.809
-75	14725.1045
-74	14420.6932
-73	14800.0333
-72	15406.9624
-71	15500.6569
-70	15757.7756
-69	16190.3631
-68	16194.7629
-67	16630.0437
-66	17017.6787
-65	17254.9199
-64	17373.4127
-63	17928.4855
-62	17529.6018
-61	17679.1918
-60	17671.5796
-59	17014.4209
-58	16687.485
-57	16073.1668
-56	15822.1657
-55	15171.757
-54	14868.3701
-53	14579.4763
-52	14643.2793
-51	14432.4365
-50	14227.2452
-49	14183.8423
-48	14506.6851
-47	13994.6611
-46	14343.6661
-45	14953.6242
-44	14867.0132
-43	14792.6564
-42	15267.0145
-41	15091.8958
-40	15658.1684
-39	16575.1742
-38	16751.7995
-37	16882.5932
-36	17251.6111
-35	18161.9939
-34	18512.8866
-33	18960.2547
-32	20186.3832
-31	19957.0258
-30	20577.2444
-29	20930.5692
-28	19951.3899
-27	18488.497
-26	16069.1667
-25	15973.8987
-24	16219.5154
-23	16502.895
-22	16087.1809
-21	17230.3799
-20	17164.323
-19	17215.7724
-18	18153.3156
-17	18541.8662
-16	19718.9609
-15	20697.7934
-14	21878.9807
-13	24208.6757
-12	27567.2891
-11	30445.5518
-10	32951.233
-9	37606.7823
-8	40867.1147
-7	47383.0299
-6	53267.0407
-5	64908.6872
-4	69017.0302
-3	80314.9531
-2	92694.7092
-1	92606.6667
0	693135.473
1	92606.6667
2	92694.7092
3	80314.9531
4	69017.0302
5	64908.6872
6	53267.0407
7	47383.0299
8	40867.1147
9	37606.7823
10	32951.233
11	30445.5518
12	27567.2891
13	24208.6757
14	21878.9807
15	20697.7934
16	19718.9609
17	18541.8662
18	18153.3156
19	17215.7724
20	17164.323
21	17230.3799
22	16087.1809
23	16502.895
24	16219.5154
25	15973.8987
26	16069.1667
27	18488.497
28	19951.3899
29	20930.5692
30	20577.2444
31	19957.0258
32	20186.3832
33	18960.2547
34	18512.8866
35	18161.9939
36	17251.6111
37	16882.5932
38	16751.7995
39	16575.1742
40	15658.1684
41	15091.8958
42	15267.0145
43	14792.6564
44	14867.0132
45	14953.6242
46	14343.6661
47	13994.6611
48	14506.6851
49	14183.8423
50	14227.2452
51	14432.4365
52	14643.2793
53	14579.4763
54	14868.3701
55	15171.757
56	15822.1657
57	16073.1668
58	16687.485
59	17014.4209
60	17671.5796
61	17679.1918
62	17529.6018
63	17928.4855
64	17373.4127
65	17254.9199
66	17017.6787
67	16630.0437
68	16194.7629
69	16190.3631
70	15757.7756
71	15500.6569
72	15406.9624
73	14800.0333
74	14420.6932
75	14725.1045
76	14211.809
77	14067.8355
78	14030.7485
79	13863.0343
80	13846.0908
81	13983.1299
82	13892.4931
83	14021.503
84	13892.8686
85	14342.0665
86	14293.0108
87	14754.1948
88	14469.045
89	14960.1996
90	15121.0167
91	15438.5567
92	15393.5973
93	15795.4196
94	15397.9237
95	15501.2991
96	15154.5199
97	15261.727
98	15210.4212
99	14929.4144
100	14512.4318
101	14626.9851
102	14713.922
103	14276.8266
104	14096.3975
105	13909.1763
106	14032.9259
107	13575.7752
108	14092.6215
109	13705.8358
110	13970.6967
111	13574.1015
112	13705.9468
113	13518.5695
114	13653.726
115	13944.2639
116	14148.6117
117	14145.8101
118	14010.0557
119	14431.6263
120	14561.6708
121	14722.2656
122	14798.0788
123	14787.382
124	14762.6415
125	14860.1744
126	14546.4325
127	14818.966
128	14528.4045
129	14593.5813
130	14462.8797
131	14581.2499
132	14425.4397
133	14346.0185
134	14271.5115
135	14298.0084
136	14240.522
137	13618.8785
138	13822.2927
139	13757.2228
140	13527.9856
141	13892.0322
142	13922.5134
143	13627.7099
144	13544.4068
145	13531.0034
146	13829.8086
147	13731.4235
148	13644.6271
149	13876.3397
150	14262.8004
151	14144.9231
152	14203.6158
153	14214.3927
154	14326.6837
155	14009.0823
156	14299.872
157	14095.4771
158	14053.0047
159	14222.0896
160	13663.6503
161	13839.2248
162	13636.7721
163	13711.2987
164	13618.6726
165	13816.2378
166	13411.5323
167	13556.7993
168	13076.5302
169	13042.3238
170	13228.1715
171	12937.0142
172	12836.7795
173	12736.8204
174	13495.9272
175	13206.5684
176	12915.3985
177	12785.909
178	13095.578
179	13136.4375
180	13177.6003
181	12958.3576
182	13066.642
183	13532.5767
184	13119.429
185	13378.3135
186	13362.601
187	13299.8736
188	13508.0669
189	13362.3849
190	13484.0279
191	13354.8389
192	13083.594
193	13262.4841
194	13043.17
195	13182.1152
196	12926.2124
197	13149.9773
198	12978.5263
199	13161.1084
200	6434.1249
