Position	Value
-200	6126.5976
-199	12171.1523
-198	11906.0022
-197	12307.7379
-196	12420.2601
-195	12249.4998
-194	12320.2189
-193	12397.9626
-192	12221.2728
-191	12093.9362
-190	12161.8506
-189	12192.3177
-188	12582.032
-187	12572.5631
-186	12062.1147
-185	12391.6902
-184	11940.054
-183	12505.5409
-182	12046.7491
-181	11926.4489
-180	11666.7629
-179	11788.0189
-178	11866.164
-177	11554.2628
-176	12028.7424
-175	11763.9093
-174	11980.9494
-173	11675.1452
-172	11606.9999
-171	11866.1118
-170	11840.5036
-169	12092.8609
-168	11809.6605
-167	12726.4588
-166	11992.6127
-165	12353.2025
-164	11985.0672
-163	12457.7565
-162	12504.2604
-161	12349.9573
-160	12658.9199
-159	12434.6859
-158	12667.2091
-157	12469.8396
-156	13005.2675
-155	12579.1782
-154	12441.228
-153	12704.2379
-152	12446.2464
-151	12457.8139
-150	12238.5318
-149	12245.045
-148	12088.2676
-147	12415.8251
-146	11944.419
-145	12530.5879
-144	12089.3167
-143	12147.3781
-142	12215.2951
-141	12588.6361
-140	12367.5803
-139	12388.7356
-138	12264.6601
-137	12577.6824
-136	12569.3056
-135	12832.9534
-134	12835.025
-133	13003.214
-132	12885.4816
-131	13237.7985
-130	13457.3679
-129	13179.7536
-128	13492.149
-127	13256.7688
-126	13201.0857
-125	13229.0716
-124	12810.894
-123	13033.2059
-122	12600.6307
-121	12943.9641
-120	12954.9904
-119	12988.8758
-118	12278.5606
-117	12637.6996
-116	12670.7576
-115	12239.8492
-114	11979.1037
-113	12345.9379
-112	12044.1736
-111	12442.1412
-110	12354.1438
-109	12839.9321
-108	12952.8131
-107	12666.957
-106	12825.8986
-105	12806.2035
-104	13022.205
-103	13591.2842
-102	13326.2093
-101	13791.9357
-100	14001.4508
-99	14431.1334
-98	14592.3397
-97	14547.4009
-96	14246.1518
-95	14844.5617
-94	14771.1135
-93	14694.9726
-92	14668.5269
-91	14280.1746
-90	14305.0768
-89	14010.9599
-88	13512.9447
-87	13265.9095
-86	12922.3506
-85	12719.6708
-84	12515.7478
-83	12461.4149
-82	12481.7864
-81	12718.8742
-80	12600.2532
-79	12426.3485
-78	12563.6123
-77	12742.025
-76	12867.7594
-75	13086.562
-74	13196.1122
-73	13481.4227
-72	13832.5687
-71	14226.1936
-70	14358.496
-69	14925.1757
-68	15190.8185
-67	15268.4201
-66	15681.1728
-65	15679.4244
-64	15792.7054
-63	16037.1986
-62	15536.4824
-61	16040.8864
-60	15887.052
-59	15036.4243
-58	14701.6655
-57	14219.3066
-56	13152.7163
-55	13022.6203
-54	12849.6014
-53	12843.4844
-52	12874.9202
-51	13025.0055
-50	12707.3092
-49	12525.821
-48	13012.9777
-47	12958.7527
-46	12968.2188
-45	13373.2763
-44	13538.1709
-43	13384.5538
-42	14068.5253
-41	14173.5401
-40	14470.6895
-39	15138.2081
-38	15432.3806
-37	15928.501
-36	15960.6575
-35	17055.8434
-34	17345.8478
-33	17631.2657
-32	18454.3082
-31	18518.7078
-30	19444.7425
-29	18759.404
-28	17440.6682
-27	15878.5857
-26	14272.8622
-25	13729.557
-24	14416.9321
-23	14635.2334
-22	14533.7233
-21	15034.67
-20	14589.0346
-19	15576.2451
-18	15862.0875
-17	16786.3565
-16	17760.1549
-15	18825.3634
-14	20637.802
-13	22814.2406
-12	25829.3643
-11	29687.2836
-10	32286.3553
-9	38791.1008
-8	42412.5741
-7	51109.3031
-6	58335.9821
-5	72481.0804
-4	80499.0948
-3	94891.4845
-2	113458.8489
-1	119269.4772
0	756343.3611
1	119269.4772
2	113458.8489
3	94891.4845
4	80499.0948
5	72481.0804
6	58335.9821
7	51109.3031
8	42412.5741
9	38791.1008
10	32286.3553
11	29687.2836
12	25829.3643
13	22814.2406
14	20637.802
15	18825.3634
16	17760.1549
17	16786.3565
18	15862.0875
19	15576.2451
20	14589.0346
21	15034.67
22	14533.7233
23	14635.2334
24	14416.9321
25	13729.557
26	14272.8622
27	15878.5857
28	17440.6682
29	18759.404
30	19444.7425
31	18518.7078
32	18454.3082
33	17631.2657
34	17345.8478
35	17055.8434
36	15960.6575
37	15928.501
38	15432.3806
39	15138.2081
40	14470.6895
41	14173.5401
42	14068.5253
43	13384.5538
44	13538.1709
45	13373.2763
46	12968.2188
47	12958.7527
48	13012.9777
49	12525.821
50	12707.3092
51	13025.0055
52	12874.9202
53	12843.4844
54	12849.6014
55	13022.6203
56	13152.7163
57	14219.3066
58	14701.6655
59	15036.4243
60	15887.052
61	16040.8864
62	15536.4824
63	16037.1986
64	15792.7054
65	15679.4244
66	15681.1728
67	15268.4201
68	15190.8185
69	14925.1757
70	14358.496
71	14226.1936
72	13832.5687
73	13481.4227
74	13196.1122
75	13086.562
76	12867.7594
77	12742.025
78	12563.6123
79	12426.3485
80	12600.2532
81	12718.8742
82	12481.7864
83	12461.4149
84	12515.7478
85	12719.6708
86	12922.3506
87	13265.9095
88	13512.9447
89	14010.9599
90	14305.0768
91	14280.1746
92	14668.5269
93	14694.9726
94	14771.1135
95	14844.5617
96	14246.1518
97	14547.4009
98	14592.3397
99	14431.1334
100	14001.4508
101	13791.9357
102	13326.2093
103	13591.2842
104	13022.205
105	12806.2035
106	12825.8986
107	12666.957
108	12952.8131
109	12839.9321
110	12354.1438
111	12442.1412
112	12044.1736
113	12345.9379
114	11979.1037
115	12239.8492
116	12670.7576
117	12637.6996
118	12278.5606
119	12988.8758
120	12954.9904
121	12943.9641
122	12600.6307
123	13033.2059
124	12810.894
125	13229.0716
126	13201.0857
127	13256.7688
128	13492.149
129	13179.7536
130	13457.3679
131	13237.7985
132	12885.4816
133	13003.214
134	12835.025
135	12832.9534
136	12569.3056
137	12577.6824
138	12264.6601
139	12388.7356
140	12367.5803
141	12588.6361
142	12215.2951
143	12147.3781
144	12089.3167
145	12530.5879
146	11944.419
147	12415.8251
148	12088.2676
149	12245.045
150	12238.5318
151	12457.8139
152	12446.2464
153	12704.2379
154	12441.228
155	12579.1782
156	13005.2675
157	12469.8396
158	12667.2091
159	12434.6859
160	12658.9199
161	12349.9573
162	12504.2604
163	12457.7565
164	11985.0672
165	12353.2025
166	11992.6127
167	12726.4588
168	11809.6605
169	12092.8609
170	11840.5036
171	11866.1118
172	11606.9999
173	11675.1452
174	11980.9494
175	11763.9093
176	12028.7424
177	11554.2628
178	11866.164
179	11788.0189
180	11666.7629
181	11926.4489
182	12046.7491
183	12505.5409
184	11940.054
185	12391.6902
186	12062.1147
187	12572.5631
188	12582.032
189	12192.3177
190	12161.8506
191	12093.9362
192	12221.2728
193	12397.9626
194	12320.2189
195	12249.4998
196	12420.2601
197	12307.7379
198	11906.0022
199	12171.1523
200	6126.5976
