Position	Value
-200	16065.5608
-199	31864.2468
-198	32221.4335
-197	33038.476
-196	32700.8099
-195	32516.2548
-194	33069.3321
-193	33673.0243
-192	34082.7311
-191	33154.7918
-190	33000.7668
-189	33979.0516
-188	34436.6096
-187	33410.8134
-186	34411.214
-185	34141.9652
-184	34359.1087
-183	33864.8397
-182	34057.4051
-181	34441.7787
-180	34051.4021
-179	34410.803
-178	34130.5501
-177	34334.7092
-176	34132.2198
-175	33831.6375
-174	34021.9837
-173	34270.1116
-172	34114.2224
-171	33473.0857
-170	34028.4192
-169	33436.0541
-168	33894.7346
-167	34444.5657
-166	34496.9897
-165	35367.3386
-164	34810.7528
-163	34979.8014
-162	34576.8374
-161	35100.0196
-160	34845.6655
-159	35544.8414
-158	34642.927
-157	36155.2567
-156	36634.3228
-155	35688.5314
-154	36425.1219
-153	35858.3446
-152	35920.2245
-151	35805.5978
-150	35820.1788
-149	35074.3618
-148	34861.612
-147	35477.473
-146	34451.5838
-145	34388.8423
-144	35535.2346
-143	35418.1076
-142	34998.0112
-141	35454.6674
-140	35180.2123
-139	35920.973
-138	36345.4508
-137	35780.7277
-136	35531.1673
-135	36711.5931
-134	36586.8672
-133	36043.0381
-132	37606.1165
-131	37740.2898
-130	36741.2984
-129	37263.1222
-128	37704.0685
-127	38074.647
-126	38326.8037
-125	37794.6851
-124	37826.7627
-123	38110.837
-122	37985.8357
-121	37612.9307
-120	36783.9469
-119	37064.8077
-118	36685.1974
-117	35857.6241
-116	35931.8542
-115	35912.7036
-114	35301.1015
-113	35497.5164
-112	35781.5654
-111	36086.2649
-110	36912.8406
-109	35813.8111
-108	36160.5077
-107	36087.851
-106	36278.8153
-105	37722.7072
-104	38104.5764
-103	37935.2913
-102	39231.6405
-101	39895.3892
-100	40299.2269
-99	40585.2718
-98	41058.4014
-97	41625.6103
-96	41950.014
-95	42704.3375
-94	42134.3364
-93	42911.9856
-92	42035.1158
-91	41580.3363
-90	41103.1032
-89	39923.4707
-88	39763.4151
-87	39894.758
-86	39199.9104
-85	39330.8063
-84	38724.9949
-83	37774.1294
-82	37729.9757
-81	38239.9837
-80	38547.1633
-79	37641.7929
-78	38561.7113
-77	38387.8858
-76	38873.4725
-75	38757.9573
-74	39483.6617
-73	40772.2873
-72	40500.0877
-71	42244.2374
-70	42518.2257
-69	43773.5765
-68	44311.2728
-67	44761.8566
-66	46596.1747
-65	45840.7923
-64	47869.5762
-63	47417.378
-62	47931.1134
-61	48749.9762
-60	49612.3326
-59	47740.3792
-58	46266.4605
-57	45885.3546
-56	44208.2097
-55	43178.3108
-54	42829.6948
-53	42391.1336
-52	42183.2239
-51	41939.281
-50	42504.6322
-49	42031.4196
-48	43130.5915
-47	42861.2138
-46	42982.5575
-45	44354.2807
-44	44168.5332
-43	45036.8032
-42	46775.1747
-41	46563.5559
-40	47340.0125
-39	48449.5143
-38	50169.2022
-37	51986.6476
-36	53140.3146
-35	56715.7924
-34	56787.3528
-33	59443.7018
-32	60331.9826
-31	60523.7035
-30	62848.7922
-29	59970.4939
-28	57734.1897
-27	56756.961
-26	53773.4417
-25	52695.2226
-24	53163.082
-23	53659.809
-22	54331.683
-21	55548.2778
-20	55725.9289
-19	57489.0748
-18	58988.7089
-17	58408.6449
-16	61329.0236
-15	62658.0573
-14	63693.4437
-13	67996.9039
-12	73906.2584
-11	76680.8716
-10	80207.6755
-9	88911.4647
-8	92073.6822
-7	100548.8363
-6	109699.6684
-5	124929.0724
-4	126687.7876
-3	144258.4895
-2	151405.9215
-1	164673.1769
0	680475.6723
1	164673.1769
2	151405.9215
3	144258.4895
4	126687.7876
5	124929.0724
6	109699.6684
7	100548.8363
8	92073.6822
9	88911.4647
10	80207.6755
11	76680.8716
12	73906.2584
13	67996.9039
14	63693.4437
15	62658.0573
16	61329.0236
17	58408.6449
18	58988.7089
19	57489.0748
20	55725.9289
21	55548.2778
22	54331.683
23	53659.809
24	53163.082
25	52695.2226
26	53773.4417
27	56756.961
28	57734.1897
29	59970.4939
30	62848.7922
31	60523.7035
32	60331.9826
33	59443.7018
34	56787.3528
35	56715.7924
36	53140.3146
37	51986.6476
38	50169.2022
39	48449.5143
40	47340.0125
41	46563.5559
42	46775.1747
43	45036.8032
44	44168.5332
45	44354.2807
46	42982.5575
47	42861.2138
48	43130.5915
49	42031.4196
50	42504.6322
51	41939.281
52	42183.2239
53	42391.1336
54	42829.6948
55	43178.3108
56	44208.2097
57	45885.3546
58	46266.4605
59	47740.3792
60	49612.3326
61	48749.9762
62	47931.1134
63	47417.378
64	47869.5762
65	45840.7923
66	46596.1747
67	44761.8566
68	44311.2728
69	43773.5765
70	42518.2257
71	42244.2374
72	40500.0877
73	40772.2873
74	39483.6617
75	38757.9573
76	38873.4725
77	38387.8858
78	38561.7113
79	37641.7929
80	38547.1633
81	38239.9837
82	37729.9757
83	37774.1294
84	38724.9949
85	39330.8063
86	39199.9104
87	39894.758
88	39763.4151
89	39923.4707
90	41103.1032
91	41580.3363
92	42035.1158
93	42911.9856
94	42134.3364
95	42704.3375
96	41950.014
97	41625.6103
98	41058.4014
99	40585.2718
100	40299.2269
101	39895.3892
102	39231.6405
103	37935.2913
104	38104.5764
105	37722.7072
106	36278.8153
107	36087.851
108	36160.5077
109	35813.8111
110	36912.8406
111	36086.2649
112	35781.5654
113	35497.5164
114	35301.1015
115	35912.7036
116	35931.8542
117	35857.6241
118	36685.1974
119	37064.8077
120	36783.9469
121	37612.9307
122	37985.8357
123	38110.837
124	37826.7627
125	37794.6851
126	38326.8037
127	38074.647
128	37704.0685
129	37263.1222
130	36741.2984
131	37740.2898
132	37606.1165
133	36043.0381
134	36586.8672
135	36711.5931
136	35531.1673
137	35780.7277
138	36345.4508
139	35920.973
140	35180.2123
141	35454.6674
142	34998.0112
143	35418.1076
144	35535.2346
145	34388.8423
146	34451.5838
147	35477.473
148	34861.612
149	35074.3618
150	35820.1788
151	35805.5978
152	35920.2245
153	35858.3446
154	36425.1219
155	35688.5314
156	36634.3228
157	36155.2567
158	34642.927
159	35544.8414
160	34845.6655
161	35100.0196
162	34576.8374
163	34979.8014
164	34810.7528
165	35367.3386
166	34496.9897
167	34444.5657
168	33894.7346
169	33436.0541
170	34028.4192
171	33473.0857
172	34114.2224
173	34270.1116
174	34021.9837
175	33831.6375
176	34132.2198
177	34334.7092
178	34130.5501
179	34410.803
180	34051.4021
181	34441.7787
182	34057.4051
183	33864.8397
184	34359.1087
185	34141.9652
186	34411.214
187	33410.8134
188	34436.6096
189	33979.0516
190	33000.7668
191	33154.7918
192	34082.7311
193	33673.0243
194	33069.3321
195	32516.2548
196	32700.8099
197	33038.476
198	32221.4335
199	31864.2468
200	16065.5608
