Position	Value
-200	7887.9159
-199	16160.2454
-198	16125.4923
-197	15839.0625
-196	15762.1025
-195	15928.2605
-194	15901.268
-193	15779.4798
-192	15660.3937
-191	15878.119
-190	15946.9854
-189	15833.5455
-188	15734.6294
-187	15720.7213
-186	15558.378
-185	15811.085
-184	15614.5811
-183	15667.6251
-182	15706.641
-181	15433.1384
-180	15653.0292
-179	15943.9128
-178	15914.6452
-177	15750.6105
-176	15840.5918
-175	15829.5481
-174	16252.4245
-173	16008.1347
-172	15981.6242
-171	16242.6387
-170	16007.029
-169	15986.2152
-168	16161.3166
-167	16398.0319
-166	16323.8239
-165	17034.5501
-164	16558.4591
-163	16975.0896
-162	17179.9113
-161	17143.5551
-160	17396.4688
-159	17530.5234
-158	17245.7848
-157	17022.3623
-156	17057.5272
-155	16921.7965
-154	17011.7594
-153	16989.2995
-152	16942.7492
-151	16724.918
-150	16854.8342
-149	16609.7093
-148	16482.9069
-147	16731.0103
-146	16622.4043
-145	17085.9386
-144	17031.5186
-143	17313.1641
-142	17356.7036
-141	17650.2986
-140	17492.7335
-139	17449.7598
-138	17673.6192
-137	17957.4726
-136	17842.7316
-135	18321.5676
-134	18356.6081
-133	18287.8969
-132	18659.0528
-131	18872.0074
-130	18842.0027
-129	19038.5325
-128	19448.6931
-127	19331.9322
-126	19600.3362
-125	19433.6093
-124	19653.391
-123	19620.3894
-122	19353.3625
-121	19394.7209
-120	19360.9905
-119	19117.9092
-118	19017.4199
-117	19017.877
-116	19096.9336
-115	18988.5153
-114	19140.5091
-113	18812.7322
-112	18726.6727
-111	18649.0994
-110	18594.9559
-109	18145.5451
-108	18585.4472
-107	18168.4971
-106	18190.5459
-105	18344.7241
-104	18185.1494
-103	18005.0658
-102	18570.815
-101	18659.9636
-100	18727.7791
-99	19628.2908
-98	19266.1326
-97	19251.412
-96	19414.9554
-95	19591.0111
-94	19881.3643
-93	20152.9262
-92	20045.1469
-91	20007.5483
-90	19831.9052
-89	20050.4934
-88	19547.4725
-87	19846.1025
-86	19602.2769
-85	19711.7811
-84	19730.9628
-83	19898.4241
-82	19762.8286
-81	19932.9915
-80	19825.9877
-79	20249.7209
-78	20362.7512
-77	20320.8519
-76	20423.9019
-75	20430.383
-74	20324.2035
-73	20647.6414
-72	20651.8513
-71	21095.5816
-70	21120.4301
-69	21660.0788
-68	22034.3733
-67	21999.7073
-66	22234.2318
-65	22083.8703
-64	22271.1083
-63	22366.3612
-62	21844.7128
-61	22314.9124
-60	22459.9585
-59	22216.7774
-58	21648.6786
-57	21761.6161
-56	20926.9828
-55	21316.9975
-54	21204.6942
-53	20879.6534
-52	21255.3315
-51	20897.7204
-50	21279.7949
-49	20992.1464
-48	21345.8551
-47	21268.7836
-46	21073.6008
-45	21738.8049
-44	21890.7006
-43	21916.0364
-42	22052.752
-41	22276.5414
-40	22428.1308
-39	23154.7449
-38	22950.3841
-37	23389.096
-36	23663.2164
-35	23885.0427
-34	24428.1259
-33	24334.702
-32	24200.92
-31	24635.9062
-30	24965.6829
-29	25194.3618
-28	24601.882
-27	24699.7295
-26	24184.7613
-25	23417.3254
-24	23407.8364
-23	23154.955
-22	22700.9846
-21	23282.4732
-20	23146.5656
-19	23900.4889
-18	24416.6284
-17	25092.4382
-16	26344.4392
-15	27127.2343
-14	28799.312
-13	30480.3253
-12	32571.3703
-11	34987.4979
-10	37460.737
-9	41548.5106
-8	44575.3337
-7	49987.2118
-6	55899.81
-5	63918.5098
-4	74028.7193
-3	88571.8539
-2	98427.7258
-1	114435.3679
0	441871.9749
1	114435.3679
2	98427.7258
3	88571.8539
4	74028.7193
5	63918.5098
6	55899.81
7	49987.2118
8	44575.3337
9	41548.5106
10	37460.737
11	34987.4979
12	32571.3703
13	30480.3253
14	28799.312
15	27127.2343
16	26344.4392
17	25092.4382
18	24416.6284
19	23900.4889
20	23146.5656
21	23282.4732
22	22700.9846
23	23154.955
24	23407.8364
25	23417.3254
26	24184.7613
27	24699.7295
28	24601.882
29	25194.3618
30	24965.6829
31	24635.9062
32	24200.92
33	24334.702
34	24428.1259
35	23885.0427
36	23663.2164
37	23389.096
38	22950.3841
39	23154.7449
40	22428.1308
41	22276.5414
42	22052.752
43	21916.0364
44	21890.7006
45	21738.8049
46	21073.6008
47	21268.7836
48	21345.8551
49	20992.1464
50	21279.7949
51	20897.7204
52	21255.3315
53	20879.6534
54	21204.6942
55	21316.9975
56	20926.9828
57	21761.6161
58	21648.6786
59	22216.7774
60	22459.9585
61	22314.9124
62	21844.7128
63	22366.3612
64	22271.1083
65	22083.8703
66	22234.2318
67	21999.7073
68	22034.3733
69	21660.0788
70	21120.4301
71	21095.5816
72	20651.8513
73	20647.6414
74	20324.2035
75	20430.383
76	20423.9019
77	20320.8519
78	20362.7512
79	20249.7209
80	19825.9877
81	19932.9915
82	19762.8286
83	19898.4241
84	19730.9628
85	19711.7811
86	19602.2769
87	19846.1025
88	19547.4725
89	20050.4934
90	19831.9052
91	20007.5483
92	20045.1469
93	20152.9262
94	19881.3643
95	19591.0111
96	19414.9554
97	19251.412
98	19266.1326
99	19628.2908
100	18727.7791
101	18659.9636
102	18570.815
103	18005.0658
104	18185.1494
105	18344.7241
106	18190.5459
107	18168.4971
108	18585.4472
109	18145.5451
110	18594.9559
111	18649.0994
112	18726.6727
113	18812.7322
114	19140.5091
115	18988.5153
116	19096.9336
117	19017.877
118	19017.4199
119	19117.9092
120	19360.9905
121	19394.7209
122	19353.3625
123	19620.3894
124	19653.391
125	19433.6093
126	19600.3362
127	19331.9322
128	19448.6931
129	19038.5325
130	18842.0027
131	18872.0074
132	18659.0528
133	18287.8969
134	18356.6081
135	18321.5676
136	17842.7316
137	17957.4726
138	17673.6192
139	17449.7598
140	17492.7335
141	17650.2986
142	17356.7036
143	17313.1641
144	17031.5186
145	17085.9386
146	16622.4043
147	16731.0103
148	16482.9069
149	16609.7093
150	16854.8342
151	16724.918
152	16942.7492
153	16989.2995
154	17011.7594
155	16921.7965
156	17057.5272
157	17022.3623
158	17245.7848
159	17530.5234
160	17396.4688
161	17143.5551
162	17179.9113
163	16975.0896
164	16558.4591
165	17034.5501
166	16323.8239
167	16398.0319
168	16161.3166
169	15986.2152
170	16007.029
171	16242.6387
172	15981.6242
173	16008.1347
174	16252.4245
175	15829.5481
176	15840.5918
177	15750.6105
178	15914.6452
179	15943.9128
180	15653.0292
181	15433.1384
182	15706.641
183	15667.6251
184	15614.5811
185	15811.085
186	15558.378
187	15720.7213
188	15734.6294
189	15833.5455
190	15946.9854
191	15878.119
192	15660.3937
193	15779.4798
194	15901.268
195	15928.2605
196	15762.1025
197	15839.0625
198	16125.4923
199	16160.2454
200	7887.9159
