Position	Value
-200	21652.9304
-199	43028.4767
-198	43463.995
-197	44075.5119
-196	43841.3576
-195	43656.1164
-194	43794.8489
-193	44262.8148
-192	44759.2237
-191	44007.4864
-190	43886.4159
-189	45406.1551
-188	44954.8733
-187	44628.3936
-186	45287.406
-185	44782.8473
-184	45586.6699
-183	45428.9484
-182	45373.4296
-181	45583.7949
-180	44706.1258
-179	45600.7273
-178	45074.2232
-177	44866.4097
-176	45304.8503
-175	44658.793
-174	45974.044
-173	45261.2309
-172	44599.5607
-171	44220.241
-170	45238.8162
-169	43808.1533
-168	44704.7853
-167	45148.1554
-166	44937.6876
-165	45908.9016
-164	45468.9138
-163	45603.0817
-162	44856.4552
-161	45708.9879
-160	45824.5127
-159	46182.3202
-158	45387.7622
-157	46354.268
-156	47284.7502
-155	46206.1731
-154	47271.7198
-153	46180.7191
-152	46608.2006
-151	46558.4141
-150	46996.6373
-149	46021.3315
-148	46450.0036
-147	46312.0791
-146	45667.3397
-145	45601.671
-144	46001.1506
-143	46671.0999
-142	45927.9596
-141	46751.7515
-140	47022.1349
-139	46404.6167
-138	47158.2337
-137	46597.9854
-136	46540.0647
-135	48188.4339
-134	46801.0328
-133	47206.3815
-132	48837.7123
-131	48948.0314
-130	47720.4467
-129	48643.1161
-128	48808.5458
-127	49112.2199
-126	49324.0468
-125	48488.1017
-124	48740.9406
-123	49269.3805
-122	48407.7008
-121	48687.0058
-120	48605.3569
-119	48166.8956
-118	48051.3652
-117	47626.3896
-116	47152.9544
-115	47310.8902
-114	46539.4658
-113	46470.4841
-112	46237.2037
-111	47834.8563
-110	47775.344
-109	47573.6018
-108	47812.8369
-107	47533.6506
-106	48376.3174
-105	49025.1905
-104	48217.0328
-103	48960.6521
-102	50982.4149
-101	51152.8278
-100	51472.7994
-99	51728.612
-98	52723.0052
-97	53137.7969
-96	52903.4909
-95	53280.9776
-94	53647.4015
-93	54628.8542
-92	53765.2152
-91	53422.28
-90	52909.4215
-89	52281.0502
-88	51822.4406
-87	52388.5981
-86	51229.839
-85	51381.6182
-84	51156.7804
-83	49998.5726
-82	49462.0
-81	49775.9236
-80	51189.9519
-79	49865.186
-78	51355.8786
-77	50055.5926
-76	51921.8312
-75	51132.9351
-74	51737.9236
-73	52891.1207
-72	53680.9102
-71	54254.6572
-70	55091.0289
-69	56293.273
-68	56700.3832
-67	57529.8106
-66	59801.2466
-65	58989.6963
-64	60667.0613
-63	60805.1878
-62	60636.339
-61	62033.6828
-60	62765.0912
-59	60861.8624
-58	59728.5573
-57	59086.0803
-56	57284.7442
-55	56557.5559
-54	55917.787
-53	55365.9097
-52	55585.3068
-51	54963.466
-50	56143.5117
-49	55611.6159
-48	56160.6378
-47	56486.019
-46	56285.1244
-45	58532.363
-44	57652.5229
-43	59615.2362
-42	61466.9299
-41	60927.2861
-40	61351.6425
-39	62858.8441
-38	64933.7984
-37	67315.9797
-36	69520.0311
-35	71579.0414
-34	71376.2124
-33	74289.9239
-32	74230.8685
-31	76032.5159
-30	78923.268
-29	75818.4273
-28	73395.5998
-27	72158.8974
-26	69463.1
-25	69457.8605
-24	70662.6883
-23	70801.1431
-22	72289.3895
-21	73574.2968
-20	73406.3222
-19	74858.5892
-18	77442.0504
-17	77820.4276
-16	81037.8054
-15	83108.5821
-14	84981.9461
-13	89691.4496
-12	96862.5637
-11	100055.541
-10	105122.002
-9	116631.6308
-8	122054.805
-7	132498.1738
-6	146204.7788
-5	165540.6041
-4	171682.7866
-3	196364.8347
-2	200113.5762
-1	211296.5317
0	841295.6746
1	211296.5317
2	200113.5762
3	196364.8347
4	171682.7866
5	165540.6041
6	146204.7788
7	132498.1738
8	122054.805
9	116631.6308
10	105122.002
11	100055.541
12	96862.5637
13	89691.4496
14	84981.9461
15	83108.5821
16	81037.8054
17	77820.4276
18	77442.0504
19	74858.5892
20	73406.3222
21	73574.2968
22	72289.3895
23	70801.1431
24	70662.6883
25	69457.8605
26	69463.1
27	72158.8974
28	73395.5998
29	75818.4273
30	78923.268
31	76032.5159
32	74230.8685
33	74289.9239
34	71376.2124
35	71579.0414
36	69520.0311
37	67315.9797
38	64933.7984
39	62858.8441
40	61351.6425
41	60927.2861
42	61466.9299
43	59615.2362
44	57652.5229
45	58532.363
46	56285.1244
47	56486.019
48	56160.6378
49	55611.6159
50	56143.5117
51	54963.466
52	55585.3068
53	55365.9097
54	55917.787
55	56557.5559
56	57284.7442
57	59086.0803
58	59728.5573
59	60861.8624
60	62765.0912
61	62033.6828
62	60636.339
63	60805.1878
64	60667.0613
65	58989.6963
66	59801.2466
67	57529.8106
68	56700.3832
69	56293.273
70	55091.0289
71	54254.6572
72	53680.9102
73	52891.1207
74	51737.9236
75	51132.9351
76	51921.8312
77	50055.5926
78	51355.8786
79	49865.186
80	51189.9519
81	49775.9236
82	49462.0
83	49998.5726
84	51156.7804
85	51381.6182
86	51229.839
87	52388.5981
88	51822.4406
89	52281.0502
90	52909.4215
91	53422.28
92	53765.2152
93	54628.8542
94	53647.4015
95	53280.9776
96	52903.4909
97	53137.7969
98	52723.0052
99	51728.612
100	51472.7994
101	51152.8278
102	50982.4149
103	48960.6521
104	48217.0328
105	49025.1905
106	48376.3174
107	47533.6506
108	47812.8369
109	47573.6018
110	47775.344
111	47834.8563
112	46237.2037
113	46470.4841
114	46539.4658
115	47310.8902
116	47152.9544
117	47626.3896
118	48051.3652
119	48166.8956
120	48605.3569
121	48687.0058
122	48407.7008
123	49269.3805
124	48740.9406
125	48488.1017
126	49324.0468
127	49112.2199
128	48808.5458
129	48643.1161
130	47720.4467
131	48948.0314
132	48837.7123
133	47206.3815
134	46801.0328
135	48188.4339
136	46540.0647
137	46597.9854
138	47158.2337
139	46404.6167
140	47022.1349
141	46751.7515
142	45927.9596
143	46671.0999
144	46001.1506
145	45601.671
146	45667.3397
147	46312.0791
148	46450.0036
149	46021.3315
150	46996.6373
151	46558.4141
152	46608.2006
153	46180.7191
154	47271.7198
155	46206.1731
156	47284.7502
157	46354.268
158	45387.7622
159	46182.3202
160	45824.5127
161	45708.9879
162	44856.4552
163	45603.0817
164	45468.9138
165	45908.9016
166	44937.6876
167	45148.1554
168	44704.7853
169	43808.1533
170	45238.8162
171	44220.241
172	44599.5607
173	45261.2309
174	45974.044
175	44658.793
176	45304.8503
177	44866.4097
178	45074.2232
179	45600.7273
180	44706.1258
181	45583.7949
182	45373.4296
183	45428.9484
184	45586.6699
185	44782.8473
186	45287.406
187	44628.3936
188	44954.8733
189	45406.1551
190	43886.4159
191	44007.4864
192	44759.2237
193	44262.8148
194	43794.8489
195	43656.1164
196	43841.3576
197	44075.5119
198	43463.995
199	43028.4767
200	21652.9304
