Position	Value
-200	272620.315
-199	273020.3448
-198	272907.5077
-197	273120.9109
-196	272160.2797
-195	272697.0404
-194	273024.8788
-193	272108.9058
-192	273202.0357
-191	273781.1857
-190	272486.0283
-189	274228.7227
-188	274327.0153
-187	274214.3443
-186	275687.4346
-185	276167.4323
-184	273711.9669
-183	276917.8806
-182	273319.9351
-181	276658.5153
-180	274518.9951
-179	275382.0989
-178	275987.8407
-177	277383.6001
-176	277267.7664
-175	275553.6298
-174	278317.9796
-173	276024.5579
-172	276900.2614
-171	278777.2719
-170	278137.3985
-169	279041.0355
-168	278481.8225
-167	277551.335
-166	277925.6638
-165	279202.0042
-164	277076.1402
-163	276580.7904
-162	280351.5861
-161	278610.6321
-160	278669.6539
-159	279475.9362
-158	277834.8709
-157	279154.3363
-156	279411.8962
-155	279211.6964
-154	281094.2885
-153	280250.6028
-152	280278.7109
-151	278780.6338
-150	281931.9167
-149	280486.2105
-148	278470.9102
-147	280379.4521
-146	279313.2575
-145	280745.927
-144	280660.6619
-143	281600.116
-142	280366.4791
-141	283611.4241
-140	281864.0487
-139	282937.9135
-138	283490.5553
-137	280182.68
-136	282203.5259
-135	284412.4136
-134	278893.0431
-133	282916.8936
-132	284871.4625
-131	282883.1785
-130	282922.2376
-129	282375.2964
-128	284595.4089
-127	283956.9226
-126	284995.4488
-125	283925.2011
-124	282825.2791
-123	286097.7465
-122	283944.0284
-121	284378.5155
-120	285557.955
-119	286511.129
-118	284263.95
-117	286811.9389
-116	285424.3221
-115	285804.8889
-114	286666.0362
-113	286356.4529
-112	287574.3377
-111	289074.4414
-110	287145.001
-109	287617.9994
-108	288939.0075
-107	287677.5051
-106	286790.5821
-105	291358.4237
-104	287426.8051
-103	288600.6504
-102	291328.3567
-101	288262.3828
-100	289470.1432
-99	289623.1589
-98	289950.842
-97	289179.6344
-96	291200.4217
-95	291132.9009
-94	290638.2079
-93	291270.3366
-92	290346.6278
-91	289887.4133
-90	290629.4665
-89	292397.775
-88	289457.7979
-87	292016.0429
-86	289199.74
-85	287442.3485
-84	291298.4942
-83	289265.7892
-82	291316.6999
-81	292607.8062
-80	290049.2816
-79	292190.647
-78	294425.8645
-77	294549.5904
-76	292092.1373
-75	295210.3795
-74	295363.0244
-73	294095.9596
-72	295939.2516
-71	294988.8043
-70	294767.8734
-69	297475.6989
-68	297127.5748
-67	295481.1847
-66	298978.5185
-65	299351.9506
-64	300258.6329
-63	299555.0507
-62	300248.0199
-61	298447.0104
-60	300290.8734
-59	298410.5815
-58	296502.8179
-57	295849.8645
-56	292754.8206
-55	290551.7633
-54	291617.0341
-53	288840.7605
-52	289888.9187
-51	291632.8641
-50	292094.6694
-49	293732.9527
-48	298281.6603
-47	297816.0146
-46	298337.536
-45	300308.7542
-44	298691.2351
-43	299637.7011
-42	302299.5986
-41	303762.4905
-40	306113.0029
-39	311252.3589
-38	312892.0601
-37	315354.5701
-36	319197.1312
-35	323486.0463
-34	323841.6039
-33	329302.0561
-32	332639.8101
-31	337210.4144
-30	343500.1838
-29	347653.6168
-28	335657.4755
-27	311482.0589
-26	290875.983
-25	291750.5111
-24	286601.2269
-23	280753.9427
-22	277126.5973
-21	287792.8053
-20	284977.9922
-19	282456.5674
-18	292200.6521
-17	296272.7677
-16	300353.9902
-15	304644.3672
-14	314502.1801
-13	317852.4052
-12	331832.9756
-11	341077.3476
-10	367193.3186
-9	376520.3106
-8	399190.5738
-7	423789.6675
-6	396871.8555
-5	489407.849
-4	510069.2722
-3	554095.9286
-2	573871.2124
-1	494772.3044
0	2941964.1751
1	494772.3044
2	573871.2124
3	554095.9286
4	510069.2722
5	489407.849
6	396871.8555
7	423789.6675
8	399190.5738
9	376520.3106
10	367193.3186
11	341077.3476
12	331832.9756
13	317852.4052
14	314502.1801
15	304644.3672
16	300353.9902
17	296272.7677
18	292200.6521
19	282456.5674
20	284977.9922
21	287792.8053
22	277126.5973
23	280753.9427
24	286601.2269
25	291750.5111
26	290875.983
27	311482.0589
28	335657.4755
29	347653.6168
30	343500.1838
31	337210.4144
32	332639.8101
33	329302.0561
34	323841.6039
35	323486.0463
36	319197.1312
37	315354.5701
38	312892.0601
39	311252.3589
40	306113.0029
41	303762.4905
42	302299.5986
43	299637.7011
44	298691.2351
45	300308.7542
46	298337.536
47	297816.0146
48	298281.6603
49	293732.9527
50	292094.6694
51	291632.8641
52	289888.9187
53	288840.7605
54	291617.0341
55	290551.7633
56	292754.8206
57	295849.8645
58	296502.8179
59	298410.5815
60	300290.8734
61	298447.0104
62	300248.0199
63	299555.0507
64	300258.6329
65	299351.9506
66	298978.5185
67	295481.1847
68	297127.5748
69	297475.6989
70	294767.8734
71	294988.8043
72	295939.2516
73	294095.9596
74	295363.0244
75	295210.3795
76	292092.1373
77	294549.5904
78	294425.8645
79	292190.647
80	290049.2816
81	292607.8062
82	291316.6999
83	289265.7892
84	291298.4942
85	287442.3485
86	289199.74
87	292016.0429
88	289457.7979
89	292397.775
90	290629.4665
91	289887.4133
92	290346.6278
93	291270.3366
94	290638.2079
95	291132.9009
96	291200.4217
97	289179.6344
98	289950.842
99	289623.1589
100	289470.1432
101	288262.3828
102	291328.3567
103	288600.6504
104	287426.8051
105	291358.4237
106	286790.5821
107	287677.5051
108	288939.0075
109	287617.9994
110	287145.001
111	289074.4414
112	287574.3377
113	286356.4529
114	286666.0362
115	285804.8889
116	285424.3221
117	286811.9389
118	284263.95
119	286511.129
120	285557.955
121	284378.5155
122	283944.0284
123	286097.7465
124	282825.2791
125	283925.2011
126	284995.4488
127	283956.9226
128	284595.4089
129	282375.2964
130	282922.2376
131	282883.1785
132	284871.4625
133	282916.8936
134	278893.0431
135	284412.4136
136	282203.5259
137	280182.68
138	283490.5553
139	282937.9135
140	281864.0487
141	283611.4241
142	280366.4791
143	281600.116
144	280660.6619
145	280745.927
146	279313.2575
147	280379.4521
148	278470.9102
149	280486.2105
150	281931.9167
151	278780.6338
152	280278.7109
153	280250.6028
154	281094.2885
155	279211.6964
156	279411.8962
157	279154.3363
158	277834.8709
159	279475.9362
160	278669.6539
161	278610.6321
162	280351.5861
163	276580.7904
164	277076.1402
165	279202.0042
166	277925.6638
167	277551.335
168	278481.8225
169	279041.0355
170	278137.3985
171	278777.2719
172	276900.2614
173	276024.5579
174	278317.9796
175	275553.6298
176	277267.7664
177	277383.6001
178	275987.8407
179	275382.0989
180	274518.9951
181	276658.5153
182	273319.9351
183	276917.8806
184	273711.9669
185	276167.4323
186	275687.4346
187	274214.3443
188	274327.0153
189	274228.7227
190	272486.0283
191	273781.1857
192	273202.0357
193	272108.9058
194	273024.8788
195	272697.0404
196	272160.2797
197	273120.9109
198	272907.5077
199	273020.3448
200	272620.315
