Position	Value
-200	115.0425
-199	267.1051
-198	249.2099
-197	233.6346
-196	237.2109
-195	246.8129
-194	241.924
-193	233.0627
-192	247.2069
-191	235.8243
-190	255.8576
-189	249.9227
-188	239.2495
-187	248.2929
-186	261.8483
-185	248.983
-184	234.9753
-183	259.369
-182	241.795
-181	248.3437
-180	253.7311
-179	232.4139
-178	222.9288
-177	232.1384
-176	237.5493
-175	224.5914
-174	251.3156
-173	247.6931
-172	214.5177
-171	244.1587
-170	244.8938
-169	263.3258
-168	242.4805
-167	256.3559
-166	258.8549
-165	265.5285
-164	253.9421
-163	242.5317
-162	238.6938
-161	256.8539
-160	234.3434
-159	260.3599
-158	254.3569
-157	254.4381
-156	253.1945
-155	257.09
-154	254.8969
-153	246.3746
-152	251.5584
-151	239.4673
-150	245.1635
-149	246.7432
-148	241.6213
-147	250.2404
-146	224.5621
-145	237.001
-144	236.2161
-143	256.5301
-142	247.9
-141	254.3808
-140	248.0808
-139	239.4447
-138	245.0137
-137	269.4083
-136	249.623
-135	247.9801
-134	269.9654
-133	255.478
-132	246.5089
-131	249.263
-130	246.1736
-129	269.9113
-128	254.5553
-127	257.1204
-126	257.1075
-125	259.5199
-124	238.2933
-123	277.4321
-122	258.6833
-121	248.9816
-120	268.4538
-119	245.9312
-118	247.8041
-117	263.0387
-116	281.9151
-115	265.3781
-114	247.4704
-113	248.8609
-112	260.9939
-111	277.1968
-110	279.0067
-109	263.4743
-108	283.9233
-107	282.3666
-106	275.7103
-105	272.1811
-104	256.2795
-103	266.4072
-102	266.8047
-101	260.9467
-100	259.969
-99	277.6495
-98	256.4094
-97	256.1724
-96	268.0879
-95	265.0023
-94	264.9721
-93	271.5312
-92	286.3648
-91	267.6029
-90	267.1468
-89	275.5038
-88	282.6163
-87	263.0117
-86	286.225
-85	276.3993
-84	270.9522
-83	296.4748
-82	295.5376
-81	283.7559
-80	263.8412
-79	260.0986
-78	265.8137
-77	273.1871
-76	243.4642
-75	267.9745
-74	267.3436
-73	258.2683
-72	262.4054
-71	251.7059
-70	284.1326
-69	255.1839
-68	282.3125
-67	262.7498
-66	295.836
-65	293.5274
-64	277.6348
-63	271.5885
-62	293.6332
-61	245.8002
-60	275.131
-59	281.1594
-58	277.8188
-57	256.0584
-56	270.6582
-55	286.7559
-54	271.2983
-53	274.2948
-52	266.8181
-51	246.7175
-50	246.7269
-49	248.3706
-48	247.8047
-47	270.4982
-46	269.2091
-45	274.6709
-44	292.3485
-43	276.0084
-42	287.299
-41	297.9663
-40	292.7461
-39	281.6341
-38	296.6932
-37	293.1694
-36	296.204
-35	307.8045
-34	283.4701
-33	292.0886
-32	304.7872
-31	328.5771
-30	318.1555
-29	326.2966
-28	353.3375
-27	344.7581
-26	278.7969
-25	242.0707
-24	372.3748
-23	214.007
-22	220.4587
-21	211.5841
-20	228.0435
-19	240.8728
-18	233.9807
-17	276.9422
-16	263.9242
-15	294.7736
-14	327.8338
-13	323.7692
-12	328.75
-11	339.3886
-10	382.1414
-9	423.0095
-8	443.5408
-7	507.0535
-6	561.0181
-5	852.8737
-4	986.5899
-3	1243.9601
-2	1258.541
-1	1422.4822
0	25305.5035
1	1422.4822
2	1258.541
3	1243.9601
4	986.5899
5	852.8737
6	561.0181
7	507.0535
8	443.5408
9	423.0095
10	382.1414
11	339.3886
12	328.75
13	323.7692
14	327.8338
15	294.7736
16	263.9242
17	276.9422
18	233.9807
19	240.8728
20	228.0435
21	211.5841
22	220.4587
23	214.007
24	372.3748
25	242.0707
26	278.7969
27	344.7581
28	353.3375
29	326.2966
30	318.1555
31	328.5771
32	304.7872
33	292.0886
34	283.4701
35	307.8045
36	296.204
37	293.1694
38	296.6932
39	281.6341
40	292.7461
41	297.9663
42	287.299
43	276.0084
44	292.3485
45	274.6709
46	269.2091
47	270.4982
48	247.8047
49	248.3706
50	246.7269
51	246.7175
52	266.8181
53	274.2948
54	271.2983
55	286.7559
56	270.6582
57	256.0584
58	277.8188
59	281.1594
60	275.131
61	245.8002
62	293.6332
63	271.5885
64	277.6348
65	293.5274
66	295.836
67	262.7498
68	282.3125
69	255.1839
70	284.1326
71	251.7059
72	262.4054
73	258.2683
74	267.3436
75	267.9745
76	243.4642
77	273.1871
78	265.8137
79	260.0986
80	263.8412
81	283.7559
82	295.5376
83	296.4748
84	270.9522
85	276.3993
86	286.225
87	263.0117
88	282.6163
89	275.5038
90	267.1468
91	267.6029
92	286.3648
93	271.5312
94	264.9721
95	265.0023
96	268.0879
97	256.1724
98	256.4094
99	277.6495
100	259.969
101	260.9467
102	266.8047
103	266.4072
104	256.2795
105	272.1811
106	275.7103
107	282.3666
108	283.9233
109	263.4743
110	279.0067
111	277.1968
112	260.9939
113	248.8609
114	247.4704
115	265.3781
116	281.9151
117	263.0387
118	247.8041
119	245.9312
120	268.4538
121	248.9816
122	258.6833
123	277.4321
124	238.2933
125	259.5199
126	257.1075
127	257.1204
128	254.5553
129	269.9113
130	246.1736
131	249.263
132	246.5089
133	255.478
134	269.9654
135	247.9801
136	249.623
137	269.4083
138	245.0137
139	239.4447
140	248.0808
141	254.3808
142	247.9
143	256.5301
144	236.2161
145	237.001
146	224.5621
147	250.2404
148	241.6213
149	246.7432
150	245.1635
151	239.4673
152	251.5584
153	246.3746
154	254.8969
155	257.09
156	253.1945
157	254.4381
158	254.3569
159	260.3599
160	234.3434
161	256.8539
162	238.6938
163	242.5317
164	253.9421
165	265.5285
166	258.8549
167	256.3559
168	242.4805
169	263.3258
170	244.8938
171	244.1587
172	214.5177
173	247.6931
174	251.3156
175	224.5914
176	237.5493
177	232.1384
178	222.9288
179	232.4139
180	253.7311
181	248.3437
182	241.795
183	259.369
184	234.9753
185	248.983
186	261.8483
187	248.2929
188	239.2495
189	249.9227
190	255.8576
191	235.8243
192	247.2069
193	233.0627
194	241.924
195	246.8129
196	237.2109
197	233.6346
198	249.2099
199	267.1051
200	115.0425
