Position	Value
-200	1909.2866
-199	1865.6903
-198	2068.5834
-197	1952.5504
-196	1770.7682
-195	1942.9915
-194	1942.3551
-193	1828.3486
-192	1937.8419
-191	1989.3276
-190	1945.3629
-189	2057.1796
-188	1886.0525
-187	1997.7443
-186	1926.0379
-185	2010.4596
-184	1846.1263
-183	2202.9343
-182	2105.7315
-181	2190.139
-180	2215.2434
-179	2230.4009
-178	2305.935
-177	2164.3516
-176	2017.4835
-175	2231.2384
-174	2136.991
-173	2220.8905
-172	2180.6238
-171	2294.1948
-170	2168.3478
-169	2265.9062
-168	2160.0625
-167	2030.4755
-166	2263.4716
-165	2441.5273
-164	2148.0065
-163	2250.9414
-162	2133.8197
-161	2184.3754
-160	2077.0945
-159	2046.1386
-158	2063.7997
-157	2065.3605
-156	2027.1122
-155	1976.5694
-154	2181.9834
-153	2163.7971
-152	2165.2888
-151	2098.6477
-150	2028.9964
-149	2084.7675
-148	2093.7151
-147	2131.0464
-146	2114.8818
-145	2330.8807
-144	2311.2633
-143	2308.1682
-142	2283.3482
-141	2269.5433
-140	2385.4178
-139	2348.2861
-138	2491.6905
-137	2237.7786
-136	2167.8226
-135	2405.4425
-134	2258.3915
-133	2384.1584
-132	2159.1368
-131	2391.1565
-130	2172.5773
-129	2086.3497
-128	2288.3643
-127	2253.8875
-126	2357.9368
-125	2088.7775
-124	2403.1254
-123	2307.7964
-122	2354.6765
-121	2349.3112
-120	2342.5407
-119	2218.724
-118	2338.0075
-117	2276.5098
-116	2202.1913
-115	2460.274
-114	2422.8037
-113	2246.8746
-112	2246.5044
-111	2308.9698
-110	2360.4943
-109	2397.2065
-108	2371.8322
-107	2146.01
-106	2113.9413
-105	2195.0901
-104	2096.99
-103	2213.2271
-102	2122.6016
-101	2106.312
-100	1983.271
-99	2270.4344
-98	2125.0787
-97	2279.6051
-96	2322.289
-95	2018.8251
-94	2089.1298
-93	2179.2973
-92	2033.3227
-91	2146.3213
-90	2043.6824
-89	2217.861
-88	2116.0396
-87	2070.5345
-86	1980.5015
-85	2228.7304
-84	2058.8875
-83	2343.231
-82	2044.8649
-81	2191.3527
-80	2335.8118
-79	2255.0465
-78	2243.099
-77	2170.5634
-76	2364.2427
-75	2320.6257
-74	2399.86
-73	2369.8759
-72	2336.7364
-71	2509.1026
-70	2289.116
-69	2477.6749
-68	2453.4582
-67	2547.8923
-66	2508.0653
-65	2498.0982
-64	2519.4461
-63	2748.9144
-62	2427.4605
-61	2558.3565
-60	2577.5728
-59	2521.5754
-58	2436.501
-57	2644.8608
-56	2417.0422
-55	2731.4389
-54	2509.3151
-53	2370.9655
-52	2504.2304
-51	2513.4209
-50	2455.8709
-49	2537.7743
-48	2430.6564
-47	2488.8519
-46	2507.3229
-45	2386.9235
-44	2741.2556
-43	2736.1476
-42	2746.2387
-41	2777.5586
-40	2649.3129
-39	2869.4708
-38	2622.5537
-37	2751.2156
-36	2987.267
-35	3005.1348
-34	3208.133
-33	2827.5982
-32	3206.7047
-31	2990.7391
-30	3110.41
-29	3194.4676
-28	2935.2766
-27	2764.271
-26	2912.9515
-25	2676.9662
-24	2615.0411
-23	2405.1373
-22	2662.6949
-21	2761.7865
-20	2689.1681
-19	2750.7611
-18	3010.3818
-17	3145.9063
-16	3264.916
-15	3264.8107
-14	3445.3216
-13	3595.1051
-12	4125.0655
-11	3816.9684
-10	4210.076
-9	4779.0063
-8	5323.0679
-7	5384.5862
-6	5177.6871
-5	6207.2716
-4	6465.39
-3	7634.1662
-2	8946.9664
-1	12215.5444
0	47789.5967
1	12215.5444
2	8946.9664
3	7634.1662
4	6465.39
5	6207.2716
6	5177.6871
7	5384.5862
8	5323.0679
9	4779.0063
10	4210.076
11	3816.9684
12	4125.0655
13	3595.1051
14	3445.3216
15	3264.8107
16	3264.916
17	3145.9063
18	3010.3818
19	2750.7611
20	2689.1681
21	2761.7865
22	2662.6949
23	2405.1373
24	2615.0411
25	2676.9662
26	2912.9515
27	2764.271
28	2935.2766
29	3194.4676
30	3110.41
31	2990.7391
32	3206.7047
33	2827.5982
34	3208.133
35	3005.1348
36	2987.267
37	2751.2156
38	2622.5537
39	2869.4708
40	2649.3129
41	2777.5586
42	2746.2387
43	2736.1476
44	2741.2556
45	2386.9235
46	2507.3229
47	2488.8519
48	2430.6564
49	2537.7743
50	2455.8709
51	2513.4209
52	2504.2304
53	2370.9655
54	2509.3151
55	2731.4389
56	2417.0422
57	2644.8608
58	2436.501
59	2521.5754
60	2577.5728
61	2558.3565
62	2427.4605
63	2748.9144
64	2519.4461
65	2498.0982
66	2508.0653
67	2547.8923
68	2453.4582
69	2477.6749
70	2289.116
71	2509.1026
72	2336.7364
73	2369.8759
74	2399.86
75	2320.6257
76	2364.2427
77	2170.5634
78	2243.099
79	2255.0465
80	2335.8118
81	2191.3527
82	2044.8649
83	2343.231
84	2058.8875
85	2228.7304
86	1980.5015
87	2070.5345
88	2116.0396
89	2217.861
90	2043.6824
91	2146.3213
92	2033.3227
93	2179.2973
94	2089.1298
95	2018.8251
96	2322.289
97	2279.6051
98	2125.0787
99	2270.4344
100	1983.271
101	2106.312
102	2122.6016
103	2213.2271
104	2096.99
105	2195.0901
106	2113.9413
107	2146.01
108	2371.8322
109	2397.2065
110	2360.4943
111	2308.9698
112	2246.5044
113	2246.8746
114	2422.8037
115	2460.274
116	2202.1913
117	2276.5098
118	2338.0075
119	2218.724
120	2342.5407
121	2349.3112
122	2354.6765
123	2307.7964
124	2403.1254
125	2088.7775
126	2357.9368
127	2253.8875
128	2288.3643
129	2086.3497
130	2172.5773
131	2391.1565
132	2159.1368
133	2384.1584
134	2258.3915
135	2405.4425
136	2167.8226
137	2237.7786
138	2491.6905
139	2348.2861
140	2385.4178
141	2269.5433
142	2283.3482
143	2308.1682
144	2311.2633
145	2330.8807
146	2114.8818
147	2131.0464
148	2093.7151
149	2084.7675
150	2028.9964
151	2098.6477
152	2165.2888
153	2163.7971
154	2181.9834
155	1976.5694
156	2027.1122
157	2065.3605
158	2063.7997
159	2046.1386
160	2077.0945
161	2184.3754
162	2133.8197
163	2250.9414
164	2148.0065
165	2441.5273
166	2263.4716
167	2030.4755
168	2160.0625
169	2265.9062
170	2168.3478
171	2294.1948
172	2180.6238
173	2220.8905
174	2136.991
175	2231.2384
176	2017.4835
177	2164.3516
178	2305.935
179	2230.4009
180	2215.2434
181	2190.139
182	2105.7315
183	2202.9343
184	1846.1263
185	2010.4596
186	1926.0379
187	1997.7443
188	1886.0525
189	2057.1796
190	1945.3629
191	1989.3276
192	1937.8419
193	1828.3486
194	1942.3551
195	1942.9915
196	1770.7682
197	1952.5504
198	2068.5834
199	1865.6903
200	1909.2866
