Position	Value
-200	145926
-199	146431
-198	145367
-197	145648
-196	146065
-195	146951
-194	146464
-193	147153
-192	148580
-191	146791
-190	148205
-189	148801
-188	146895
-187	146637
-186	148257
-185	148182
-184	145474
-183	149238
-182	146400
-181	149134
-180	147870
-179	148810
-178	147751
-177	148742
-176	149368
-175	147461
-174	150082
-173	148452
-172	148799
-171	149929
-170	149157
-169	149619
-168	149403
-167	148885
-166	150203
-165	149557
-164	149204
-163	148922
-162	150263
-161	149098
-160	149546
-159	148889
-158	149045
-157	149732
-156	149446
-155	149119
-154	150538
-153	150553
-152	151225
-151	150983
-150	151841
-149	150925
-148	150989
-147	150641
-146	150516
-145	151561
-144	151458
-143	151822
-142	151961
-141	153386
-140	152170
-139	153140
-138	152798
-137	151937
-136	152268
-135	153550
-134	152557
-133	152109
-132	153867
-131	152616
-130	151547
-129	152589
-128	152731
-127	153228
-126	152102
-125	152046
-124	152924
-123	153800
-122	153638
-121	153525
-120	154149
-119	154643
-118	153700
-117	154801
-116	153087
-115	154900
-114	154908
-113	156001
-112	155828
-111	157122
-110	156417
-109	155660
-108	157096
-107	155898
-106	155684
-105	156644
-104	154987
-103	155174
-102	156938
-101	155768
-100	154498
-99	155562
-98	155540
-97	154679
-96	154690
-95	154513
-94	155621
-93	157049
-92	155384
-91	154860
-90	155880
-89	156168
-88	155219
-87	155192
-86	154848
-85	154013
-84	155437
-83	154982
-82	155934
-81	155295
-80	155856
-79	155704
-78	158197
-77	157806
-76	157664
-75	157726
-74	158346
-73	158760
-72	158656
-71	156911
-70	158742
-69	161267
-68	161111
-67	161033
-66	163527
-65	162364
-64	163352
-63	163942
-62	163800
-61	162322
-60	162918
-59	162386
-58	159429
-57	158692
-56	156481
-55	154246
-54	154047
-53	152514
-52	152199
-51	153489
-50	154100
-49	154514
-48	157375
-47	157960
-46	158953
-45	160794
-44	159928
-43	160677
-42	162055
-41	162227
-40	164632
-39	166956
-38	167944
-37	169866
-36	171892
-35	177065
-34	177252
-33	180944
-32	182768
-31	184393
-30	187817
-29	188525
-28	184224
-27	170783
-26	158327
-25	153651
-24	150017
-23	145738
-22	148678
-21	157450
-20	159083
-19	159857
-18	164529
-17	167443
-16	172954
-15	175432
-14	180705
-13	185598
-12	194270
-11	204042
-10	222253
-9	233246
-8	255181
-7	276139
-6	277365
-5	336861
-4	371773
-3	439769
-2	505611
-1	487129
0	2.09591e+06
1	487129
2	505611
3	439769
4	371773
5	336861
6	277365
7	276139
8	255181
9	233246
10	222253
11	204042
12	194270
13	185598
14	180705
15	175432
16	172954
17	167443
18	164529
19	159857
20	159083
21	157450
22	148678
23	145738
24	150017
25	153651
26	158327
27	170783
28	184224
29	188525
30	187817
31	184393
32	182768
33	180944
34	177252
35	177065
36	171892
37	169866
38	167944
39	166956
40	164632
41	162227
42	162055
43	160677
44	159928
45	160794
46	158953
47	157960
48	157375
49	154514
50	154100
51	153489
52	152199
53	152514
54	154047
55	154246
56	156481
57	158692
58	159429
59	162386
60	162918
61	162322
62	163800
63	163942
64	163352
65	162364
66	163527
67	161033
68	161111
69	161267
70	158742
71	156911
72	158656
73	158760
74	158346
75	157726
76	157664
77	157806
78	158197
79	155704
80	155856
81	155295
82	155934
83	154982
84	155437
85	154013
86	154848
87	155192
88	155219
89	156168
90	155880
91	154860
92	155384
93	157049
94	155621
95	154513
96	154690
97	154679
98	155540
99	155562
100	154498
101	155768
102	156938
103	155174
104	154987
105	156644
106	155684
107	155898
108	157096
109	155660
110	156417
111	157122
112	155828
113	156001
114	154908
115	154900
116	153087
117	154801
118	153700
119	154643
120	154149
121	153525
122	153638
123	153800
124	152924
125	152046
126	152102
127	153228
128	152731
129	152589
130	151547
131	152616
132	153867
133	152109
134	152557
135	153550
136	152268
137	151937
138	152798
139	153140
140	152170
141	153386
142	151961
143	151822
144	151458
145	151561
146	150516
147	150641
148	150989
149	150925
150	151841
151	150983
152	151225
153	150553
154	150538
155	149119
156	149446
157	149732
158	149045
159	148889
160	149546
161	149098
162	150263
163	148922
164	149204
165	149557
166	150203
167	148885
168	149403
169	149619
170	149157
171	149929
172	148799
173	148452
174	150082
175	147461
176	149368
177	148742
178	147751
179	148810
180	147870
181	149134
182	146400
183	149238
184	145474
185	148182
186	148257
187	146637
188	146895
189	148801
190	148205
191	146791
192	148580
193	147153
194	146464
195	146951
196	146065
197	145648
198	145367
199	146431
200	145926
