Position	Value
-200	155.2553
-199	317.9497
-198	334.5394
-197	309.0644
-196	305.357
-195	329.1836
-194	324.2895
-193	312.024
-192	341.4284
-191	318.2792
-190	309.3936
-189	332.6824
-188	317.4206
-187	346.6998
-186	332.9613
-185	301.0979
-184	305.6109
-183	324.8575
-182	308.1745
-181	300.1585
-180	282.8969
-179	319.452
-178	281.4354
-177	312.9242
-176	319.404
-175	329.4139
-174	325.7515
-173	313.687
-172	309.7334
-171	331.9239
-170	320.41
-169	325.5444
-168	338.796
-167	340.4832
-166	327.1994
-165	335.4311
-164	320.5448
-163	329.0256
-162	319.7233
-161	320.1426
-160	323.3577
-159	338.3766
-158	307.4303
-157	330.2363
-156	324.7127
-155	323.1399
-154	304.4292
-153	311.3715
-152	315.0485
-151	312.6112
-150	301.7167
-149	327.3967
-148	309.7105
-147	332.9257
-146	325.6754
-145	296.642
-144	334.0671
-143	341.2527
-142	338.2825
-141	337.495
-140	336.5902
-139	317.9554
-138	344.2695
-137	344.6456
-136	324.3185
-135	325.0911
-134	344.7925
-133	310.9989
-132	354.1089
-131	334.3957
-130	342.9565
-129	345.5722
-128	345.1747
-127	351.4784
-126	342.8309
-125	317.2102
-124	316.509
-123	318.1386
-122	344.8818
-121	340.0298
-120	308.2921
-119	349.1295
-118	347.3371
-117	332.5026
-116	348.9706
-115	333.3189
-114	339.125
-113	339.1577
-112	339.1697
-111	346.4641
-110	362.872
-109	330.8253
-108	378.0818
-107	360.2262
-106	369.4616
-105	353.3966
-104	343.3231
-103	356.7872
-102	380.5714
-101	356.0299
-100	334.5582
-99	329.2967
-98	356.9094
-97	362.0663
-96	347.0463
-95	349.6381
-94	330.998
-93	373.2281
-92	350.2522
-91	342.2687
-90	361.4341
-89	339.1635
-88	374.5148
-87	319.551
-86	327.5996
-85	329.4251
-84	364.5503
-83	381.9773
-82	368.638
-81	346.7716
-80	349.5218
-79	355.7809
-78	342.4385
-77	358.1129
-76	352.1636
-75	342.8656
-74	362.7015
-73	350.7055
-72	338.7439
-71	318.6159
-70	324.8948
-69	336.2348
-68	340.444
-67	346.6819
-66	348.3315
-65	354.0421
-64	355.0528
-63	341.1016
-62	370.5049
-61	361.8399
-60	356.0714
-59	372.8654
-58	362.5739
-57	345.75
-56	360.7312
-55	361.8043
-54	335.814
-53	356.7044
-52	345.2701
-51	334.092
-50	332.2696
-49	334.5555
-48	342.4816
-47	365.993
-46	352.9694
-45	342.9281
-44	359.556
-43	372.9061
-42	362.9713
-41	353.0102
-40	379.7892
-39	361.1949
-38	387.1147
-37	391.9174
-36	372.3576
-35	388.2736
-34	412.9086
-33	401.1735
-32	422.4581
-31	409.3395
-30	423.1848
-29	426.7629
-28	410.8085
-27	428.2835
-26	356.947
-25	326.3438
-24	500.3807
-23	289.4649
-22	290.1396
-21	296.8515
-20	306.6424
-19	318.4454
-18	308.248
-17	328.6501
-16	336.5059
-15	357.7111
-14	401.2222
-13	408.9767
-12	432.795
-11	438.761
-10	517.4462
-9	539.7703
-8	564.6852
-7	616.8205
-6	704.5437
-5	1038.8016
-4	1228.1229
-3	1459.0022
-2	1563.8364
-1	1708.3627
0	28508.6907
1	1708.3627
2	1563.8364
3	1459.0022
4	1228.1229
5	1038.8016
6	704.5437
7	616.8205
8	564.6852
9	539.7703
10	517.4462
11	438.761
12	432.795
13	408.9767
14	401.2222
15	357.7111
16	336.5059
17	328.6501
18	308.248
19	318.4454
20	306.6424
21	296.8515
22	290.1396
23	289.4649
24	500.3807
25	326.3438
26	356.947
27	428.2835
28	410.8085
29	426.7629
30	423.1848
31	409.3395
32	422.4581
33	401.1735
34	412.9086
35	388.2736
36	372.3576
37	391.9174
38	387.1147
39	361.1949
40	379.7892
41	353.0102
42	362.9713
43	372.9061
44	359.556
45	342.9281
46	352.9694
47	365.993
48	342.4816
49	334.5555
50	332.2696
51	334.092
52	345.2701
53	356.7044
54	335.814
55	361.8043
56	360.7312
57	345.75
58	362.5739
59	372.8654
60	356.0714
61	361.8399
62	370.5049
63	341.1016
64	355.0528
65	354.0421
66	348.3315
67	346.6819
68	340.444
69	336.2348
70	324.8948
71	318.6159
72	338.7439
73	350.7055
74	362.7015
75	342.8656
76	352.1636
77	358.1129
78	342.4385
79	355.7809
80	349.5218
81	346.7716
82	368.638
83	381.9773
84	364.5503
85	329.4251
86	327.5996
87	319.551
88	374.5148
89	339.1635
90	361.4341
91	342.2687
92	350.2522
93	373.2281
94	330.998
95	349.6381
96	347.0463
97	362.0663
98	356.9094
99	329.2967
100	334.5582
101	356.0299
102	380.5714
103	356.7872
104	343.3231
105	353.3966
106	369.4616
107	360.2262
108	378.0818
109	330.8253
110	362.872
111	346.4641
112	339.1697
113	339.1577
114	339.125
115	333.3189
116	348.9706
117	332.5026
118	347.3371
119	349.1295
120	308.2921
121	340.0298
122	344.8818
123	318.1386
124	316.509
125	317.2102
126	342.8309
127	351.4784
128	345.1747
129	345.5722
130	342.9565
131	334.3957
132	354.1089
133	310.9989
134	344.7925
135	325.0911
136	324.3185
137	344.6456
138	344.2695
139	317.9554
140	336.5902
141	337.495
142	338.2825
143	341.2527
144	334.0671
145	296.642
146	325.6754
147	332.9257
148	309.7105
149	327.3967
150	301.7167
151	312.6112
152	315.0485
153	311.3715
154	304.4292
155	323.1399
156	324.7127
157	330.2363
158	307.4303
159	338.3766
160	323.3577
161	320.1426
162	319.7233
163	329.0256
164	320.5448
165	335.4311
166	327.1994
167	340.4832
168	338.796
169	325.5444
170	320.41
171	331.9239
172	309.7334
173	313.687
174	325.7515
175	329.4139
176	319.404
177	312.9242
178	281.4354
179	319.452
180	282.8969
181	300.1585
182	308.1745
183	324.8575
184	305.6109
185	301.0979
186	332.9613
187	346.6998
188	317.4206
189	332.6824
190	309.3936
191	318.2792
192	341.4284
193	312.024
194	324.2895
195	329.1836
196	305.357
197	309.0644
198	334.5394
199	317.9497
200	155.2553
