Position	Value
-200	113.6996
-199	260.2964
-198	234.0178
-197	237.29
-196	232.3019
-195	236.4262
-194	237.5962
-193	229.8883
-192	243.6807
-191	245.3535
-190	242.9222
-189	243.1085
-188	216.1739
-187	224.6475
-186	230.8031
-185	246.9864
-184	247.8891
-183	240.0503
-182	257.1328
-181	235.4832
-180	242.6458
-179	221.3107
-178	237.1155
-177	253.0258
-176	241.3072
-175	253.0449
-174	258.6821
-173	244.4892
-172	246.7042
-171	245.2534
-170	254.1592
-169	263.5392
-168	248.8691
-167	260.0969
-166	271.0831
-165	243.1049
-164	261.5889
-163	257.57
-162	229.3666
-161	238.8094
-160	249.522
-159	265.2754
-158	253.2179
-157	236.326
-156	246.3361
-155	240.721
-154	229.0255
-153	240.7564
-152	251.7159
-151	229.6004
-150	243.2223
-149	235.8647
-148	212.3652
-147	241.3401
-146	243.2199
-145	222.9805
-144	221.0771
-143	258.6061
-142	236.1281
-141	242.5113
-140	237.3155
-139	242.4673
-138	243.259
-137	237.4049
-136	262.4137
-135	253.3098
-134	246.9503
-133	260.7262
-132	252.5589
-131	242.2565
-130	254.8727
-129	247.1246
-128	255.2127
-127	238.578
-126	265.2795
-125	259.5647
-124	236.1332
-123	250.3704
-122	248.524
-121	250.8797
-120	231.0956
-119	267.833
-118	247.6376
-117	251.1639
-116	260.0985
-115	251.0268
-114	245.0847
-113	252.4824
-112	261.756
-111	267.8305
-110	265.3986
-109	270.5092
-108	254.2026
-107	284.6079
-106	259.8577
-105	247.1138
-104	237.9576
-103	272.5364
-102	256.1136
-101	254.6498
-100	247.1968
-99	257.5098
-98	271.8465
-97	280.4249
-96	243.507
-95	265.9843
-94	253.9601
-93	284.4528
-92	262.7036
-91	243.8187
-90	254.4001
-89	246.5346
-88	243.9417
-87	260.4498
-86	246.4354
-85	257.2255
-84	278.1718
-83	273.5447
-82	253.5235
-81	265.1997
-80	274.7343
-79	245.2596
-78	261.3223
-77	265.5575
-76	248.8953
-75	260.0823
-74	271.1801
-73	268.9463
-72	267.2707
-71	254.864
-70	255.1942
-69	281.2429
-68	259.242
-67	279.9765
-66	276.0861
-65	274.1597
-64	275.0821
-63	293.9637
-62	273.7632
-61	275.1821
-60	261.8428
-59	265.5354
-58	265.1215
-57	263.7881
-56	261.815
-55	250.4731
-54	270.8521
-53	263.6363
-52	246.0787
-51	273.7816
-50	258.5425
-49	270.4366
-48	273.2077
-47	276.7457
-46	273.5933
-45	281.044
-44	276.0439
-43	306.1261
-42	306.9846
-41	284.1438
-40	283.8065
-39	300.2047
-38	294.2624
-37	291.9046
-36	280.8035
-35	310.7385
-34	278.3716
-33	296.3252
-32	329.8725
-31	298.0406
-30	297.5346
-29	328.9755
-28	329.9431
-27	311.7121
-26	282.4307
-25	230.9042
-24	390.9154
-23	223.4722
-22	207.9744
-21	214.9493
-20	229.8146
-19	248.5232
-18	240.5013
-17	241.8233
-16	281.6014
-15	288.2219
-14	300.8298
-13	307.8647
-12	342.929
-11	344.1204
-10	384.4541
-9	416.2164
-8	459.445
-7	496.0293
-6	536.2804
-5	791.4519
-4	957.1673
-3	1098.6293
-2	1116.088
-1	1327.2499
0	24087.142
1	1327.2499
2	1116.088
3	1098.6293
4	957.1673
5	791.4519
6	536.2804
7	496.0293
8	459.445
9	416.2164
10	384.4541
11	344.1204
12	342.929
13	307.8647
14	300.8298
15	288.2219
16	281.6014
17	241.8233
18	240.5013
19	248.5232
20	229.8146
21	214.9493
22	207.9744
23	223.4722
24	390.9154
25	230.9042
26	282.4307
27	311.7121
28	329.9431
29	328.9755
30	297.5346
31	298.0406
32	329.8725
33	296.3252
34	278.3716
35	310.7385
36	280.8035
37	291.9046
38	294.2624
39	300.2047
40	283.8065
41	284.1438
42	306.9846
43	306.1261
44	276.0439
45	281.044
46	273.5933
47	276.7457
48	273.2077
49	270.4366
50	258.5425
51	273.7816
52	246.0787
53	263.6363
54	270.8521
55	250.4731
56	261.815
57	263.7881
58	265.1215
59	265.5354
60	261.8428
61	275.1821
62	273.7632
63	293.9637
64	275.0821
65	274.1597
66	276.0861
67	279.9765
68	259.242
69	281.2429
70	255.1942
71	254.864
72	267.2707
73	268.9463
74	271.1801
75	260.0823
76	248.8953
77	265.5575
78	261.3223
79	245.2596
80	274.7343
81	265.1997
82	253.5235
83	273.5447
84	278.1718
85	257.2255
86	246.4354
87	260.4498
88	243.9417
89	246.5346
90	254.4001
91	243.8187
92	262.7036
93	284.4528
94	253.9601
95	265.9843
96	243.507
97	280.4249
98	271.8465
99	257.5098
100	247.1968
101	254.6498
102	256.1136
103	272.5364
104	237.9576
105	247.1138
106	259.8577
107	284.6079
108	254.2026
109	270.5092
110	265.3986
111	267.8305
112	261.756
113	252.4824
114	245.0847
115	251.0268
116	260.0985
117	251.1639
118	247.6376
119	267.833
120	231.0956
121	250.8797
122	248.524
123	250.3704
124	236.1332
125	259.5647
126	265.2795
127	238.578
128	255.2127
129	247.1246
130	254.8727
131	242.2565
132	252.5589
133	260.7262
134	246.9503
135	253.3098
136	262.4137
137	237.4049
138	243.259
139	242.4673
140	237.3155
141	242.5113
142	236.1281
143	258.6061
144	221.0771
145	222.9805
146	243.2199
147	241.3401
148	212.3652
149	235.8647
150	243.2223
151	229.6004
152	251.7159
153	240.7564
154	229.0255
155	240.721
156	246.3361
157	236.326
158	253.2179
159	265.2754
160	249.522
161	238.8094
162	229.3666
163	257.57
164	261.5889
165	243.1049
166	271.0831
167	260.0969
168	248.8691
169	263.5392
170	254.1592
171	245.2534
172	246.7042
173	244.4892
174	258.6821
175	253.0449
176	241.3072
177	253.0258
178	237.1155
179	221.3107
180	242.6458
181	235.4832
182	257.1328
183	240.0503
184	247.8891
185	246.9864
186	230.8031
187	224.6475
188	216.1739
189	243.1085
190	242.9222
191	245.3535
192	243.6807
193	229.8883
194	237.5962
195	236.4262
196	232.3019
197	237.29
198	234.0178
199	260.2964
200	113.6996
