Position	Value
-200	364.7961
-199	396.9298
-198	414.6549
-197	401.8056
-196	419.4754
-195	389.5546
-194	386.1216
-193	403.3019
-192	353.9382
-191	367.6892
-190	369.2732
-189	374.1435
-188	361.8388
-187	396.5968
-186	402.7473
-185	384.0707
-184	395.2523
-183	393.3765
-182	376.991
-181	387.2382
-180	377.1044
-179	377.3303
-178	389.4998
-177	404.7067
-176	426.5006
-175	444.9557
-174	445.2137
-173	480.5429
-172	475.8481
-171	491.4841
-170	494.7437
-169	502.2519
-168	546.9341
-167	517.332
-166	543.2843
-165	515.7236
-164	489.8334
-163	544.6919
-162	488.9596
-161	548.8423
-160	518.0917
-159	547.5747
-158	529.0935
-157	532.0789
-156	545.4825
-155	543.8961
-154	527.1375
-153	530.2562
-152	542.7111
-151	574.8347
-150	549.0948
-149	525.9281
-148	558.3239
-147	560.6492
-146	535.5876
-145	531.8969
-144	546.9746
-143	572.937
-142	535.3324
-141	528.7325
-140	515.6794
-139	515.8422
-138	522.7767
-137	523.6684
-136	536.2681
-135	523.2689
-134	519.943
-133	527.2659
-132	521.1825
-131	504.5666
-130	499.5033
-129	492.0067
-128	498.9371
-127	474.6054
-126	468.43
-125	452.1755
-124	447.2628
-123	461.3529
-122	459.5151
-121	462.3162
-120	493.4233
-119	510.1082
-118	506.0373
-117	533.738
-116	541.6766
-115	541.9404
-114	550.103
-113	577.5125
-112	561.4187
-111	540.5685
-110	538.1421
-109	526.8847
-108	522.4286
-107	518.3097
-106	469.0281
-105	459.9395
-104	433.0717
-103	415.4876
-102	442.7597
-101	440.8981
-100	449.2628
-99	437.3872
-98	452.8032
-97	390.9376
-96	444.8248
-95	426.6469
-94	449.5559
-93	461.4144
-92	509.4761
-91	517.9287
-90	524.4612
-89	565.3378
-88	570.1313
-87	550.1351
-86	561.5282
-85	581.0721
-84	580.8401
-83	552.855
-82	539.5059
-81	548.0724
-80	600.3085
-79	627.2739
-78	622.3259
-77	632.8038
-76	630.7761
-75	652.7881
-74	651.351
-73	636.3022
-72	677.0774
-71	652.9442
-70	658.7581
-69	612.7877
-68	643.6979
-67	640.299
-66	662.0963
-65	597.7995
-64	594.104
-63	599.3133
-62	524.7633
-61	520.2355
-60	526.5446
-59	571.5825
-58	534.6678
-57	533.4193
-56	518.6597
-55	551.372
-54	568.8548
-53	588.2175
-52	583.048
-51	582.9504
-50	608.6926
-49	601.6151
-48	601.249
-47	603.7964
-46	618.3678
-45	651.8502
-44	659.9833
-43	649.7814
-42	646.7797
-41	683.4809
-40	643.0576
-39	672.6185
-38	620.7951
-37	615.9807
-36	604.7088
-35	630.693
-34	668.4388
-33	672.8134
-32	655.7088
-31	610.8263
-30	608.0222
-29	579.8117
-28	603.5266
-27	576.4408
-26	561.5868
-25	596.9647
-24	618.2313
-23	607.3514
-22	634.8141
-21	602.5285
-20	586.1231
-19	605.484
-18	633.309
-17	668.7375
-16	748.0979
-15	841.4036
-14	919.5837
-13	1010.2454
-12	1151.3086
-11	1269.3321
-10	1394.4595
-9	1564.0583
-8	1720.5742
-7	1912.6758
-6	2196.2452
-5	2564.5433
-4	2908.6052
-3	3207.1833
-2	3944.1962
-1	5314.6269
0	19341.5396
1	5314.6269
2	3944.1962
3	3207.1833
4	2908.6052
5	2564.5433
6	2196.2452
7	1912.6758
8	1720.5742
9	1564.0583
10	1394.4595
11	1269.3321
12	1151.3086
13	1010.2454
14	919.5837
15	841.4036
16	748.0979
17	668.7375
18	633.309
19	605.484
20	586.1231
21	602.5285
22	634.8141
23	607.3514
24	618.2313
25	596.9647
26	561.5868
27	576.4408
28	603.5266
29	579.8117
30	608.0222
31	610.8263
32	655.7088
33	672.8134
34	668.4388
35	630.693
36	604.7088
37	615.9807
38	620.7951
39	672.6185
40	643.0576
41	683.4809
42	646.7797
43	649.7814
44	659.9833
45	651.8502
46	618.3678
47	603.7964
48	601.249
49	601.6151
50	608.6926
51	582.9504
52	583.048
53	588.2175
54	568.8548
55	551.372
56	518.6597
57	533.4193
58	534.6678
59	571.5825
60	526.5446
61	520.2355
62	524.7633
63	599.3133
64	594.104
65	597.7995
66	662.0963
67	640.299
68	643.6979
69	612.7877
70	658.7581
71	652.9442
72	677.0774
73	636.3022
74	651.351
75	652.7881
76	630.7761
77	632.8038
78	622.3259
79	627.2739
80	600.3085
81	548.0724
82	539.5059
83	552.855
84	580.8401
85	581.0721
86	561.5282
87	550.1351
88	570.1313
89	565.3378
90	524.4612
91	517.9287
92	509.4761
93	461.4144
94	449.5559
95	426.6469
96	444.8248
97	390.9376
98	452.8032
99	437.3872
100	449.2628
101	440.8981
102	442.7597
103	415.4876
104	433.0717
105	459.9395
106	469.0281
107	518.3097
108	522.4286
109	526.8847
110	538.1421
111	540.5685
112	561.4187
113	577.5125
114	550.103
115	541.9404
116	541.6766
117	533.738
118	506.0373
119	510.1082
120	493.4233
121	462.3162
122	459.5151
123	461.3529
124	447.2628
125	452.1755
126	468.43
127	474.6054
128	498.9371
129	492.0067
130	499.5033
131	504.5666
132	521.1825
133	527.2659
134	519.943
135	523.2689
136	536.2681
137	523.6684
138	522.7767
139	515.8422
140	515.6794
141	528.7325
142	535.3324
143	572.937
144	546.9746
145	531.8969
146	535.5876
147	560.6492
148	558.3239
149	525.9281
150	549.0948
151	574.8347
152	542.7111
153	530.2562
154	527.1375
155	543.8961
156	545.4825
157	532.0789
158	529.0935
159	547.5747
160	518.0917
161	548.8423
162	488.9596
163	544.6919
164	489.8334
165	515.7236
166	543.2843
167	517.332
168	546.9341
169	502.2519
170	494.7437
171	491.4841
172	475.8481
173	480.5429
174	445.2137
175	444.9557
176	426.5006
177	404.7067
178	389.4998
179	377.3303
180	377.1044
181	387.2382
182	376.991
183	393.3765
184	395.2523
185	384.0707
186	402.7473
187	396.5968
188	361.8388
189	374.1435
190	369.2732
191	367.6892
192	353.9382
193	403.3019
194	386.1216
195	389.5546
196	419.4754
197	401.8056
198	414.6549
199	396.9298
200	364.7961
