Position	Value
-200	3377.3771
-199	3536.1918
-198	3320.5888
-197	3612.5297
-196	3958.1214
-195	3968.4476
-194	4037.6329
-193	4217.2182
-192	4202.155
-191	3829.6015
-190	4460.8789
-189	4461.9185
-188	4179.5304
-187	4308.0956
-186	4168.6882
-185	4248.74
-184	3965.5457
-183	4094.705
-182	3863.8031
-181	3718.7171
-180	3867.9871
-179	3936.3091
-178	3864.9967
-177	3705.9177
-176	3858.9528
-175	3845.9202
-174	3832.8559
-173	3844.606
-172	3885.7339
-171	3549.2991
-170	3683.3258
-169	4112.8078
-168	3685.6885
-167	3950.7111
-166	4058.8325
-165	3832.4797
-164	4234.2195
-163	4485.3295
-162	4256.2561
-161	4464.1075
-160	4270.0303
-159	4327.4311
-158	4058.0632
-157	4331.6499
-156	3839.5394
-155	4391.3906
-154	4281.8322
-153	4043.7623
-152	3996.2791
-151	4318.8992
-150	4318.5468
-149	4073.2971
-148	4495.4237
-147	4320.9506
-146	4008.7352
-145	4029.9304
-144	4134.9252
-143	3886.0807
-142	3860.2881
-141	3647.4303
-140	4507.7382
-139	3864.5683
-138	3723.6775
-137	3900.0576
-136	4049.844
-135	3957.0379
-134	3934.753
-133	4487.2932
-132	4457.5331
-131	4212.0607
-130	4822.8892
-129	4349.9411
-128	4616.8209
-127	4464.3255
-126	4465.3
-125	4506.3189
-124	4273.0658
-123	4343.6732
-122	4433.4719
-121	4486.4086
-120	4314.3616
-119	4466.5942
-118	4254.1094
-117	4094.4175
-116	4406.0497
-115	4378.2776
-114	3858.5073
-113	3689.9522
-112	4071.6842
-111	3981.4109
-110	3816.1336
-109	4225.6563
-108	3834.8027
-107	3728.1631
-106	3930.9639
-105	4536.1652
-104	4291.7591
-103	4421.5875
-102	4630.2215
-101	4862.0347
-100	4952.257
-99	5093.5663
-98	5055.7662
-97	5163.6371
-96	5462.0483
-95	5093.6786
-94	5371.4651
-93	5078.2729
-92	5335.5608
-91	5089.9069
-90	5060.3145
-89	5375.7911
-88	5291.0544
-87	4931.45
-86	4874.8732
-85	4826.0279
-84	4841.7087
-83	4512.1919
-82	4698.5739
-81	4802.5247
-80	4704.5095
-79	4597.1079
-78	4695.6159
-77	5076.0791
-76	4756.7343
-75	4860.3299
-74	5114.7539
-73	4732.2499
-72	4907.9801
-71	5186.2386
-70	5112.8626
-69	5520.6691
-68	5155.0402
-67	5927.4917
-66	5331.4749
-65	5512.0731
-64	5544.1101
-63	5419.1747
-62	5801.1497
-61	5807.5284
-60	5562.0389
-59	5890.9141
-58	5387.7943
-57	5572.8185
-56	4915.2662
-55	4897.1475
-54	5181.8138
-53	4552.4444
-52	5032.3012
-51	4441.0183
-50	4422.2088
-49	4537.8646
-48	4724.2225
-47	4410.9341
-46	4699.2084
-45	4715.591
-44	4427.6819
-43	4791.7404
-42	4572.316
-41	4431.2374
-40	4713.6099
-39	4872.4077
-38	5034.7406
-37	4999.8165
-36	5683.8721
-35	5981.7982
-34	5489.4199
-33	6129.6465
-32	6252.6319
-31	6313.0739
-30	6134.1237
-29	5908.1178
-28	5449.9516
-27	5299.2609
-26	5411.3007
-25	5521.4126
-24	5335.407
-23	5394.7085
-22	5440.6698
-21	5802.6394
-20	5878.1863
-19	5863.1951
-18	5993.825
-17	5894.5564
-16	6241.4804
-15	6726.7578
-14	6191.0982
-13	6635.9405
-12	7125.1279
-11	7715.5767
-10	9088.7467
-9	9105.5547
-8	9379.185
-7	10667.9673
-6	11030.5131
-5	11395.1259
-4	13928.4045
-3	14139.1203
-2	16455.1909
-1	16919.3053
0	74634.3046
1	16919.3053
2	16455.1909
3	14139.1203
4	13928.4045
5	11395.1259
6	11030.5131
7	10667.9673
8	9379.185
9	9105.5547
10	9088.7467
11	7715.5767
12	7125.1279
13	6635.9405
14	6191.0982
15	6726.7578
16	6241.4804
17	5894.5564
18	5993.825
19	5863.1951
20	5878.1863
21	5802.6394
22	5440.6698
23	5394.7085
24	5335.407
25	5521.4126
26	5411.3007
27	5299.2609
28	5449.9516
29	5908.1178
30	6134.1237
31	6313.0739
32	6252.6319
33	6129.6465
34	5489.4199
35	5981.7982
36	5683.8721
37	4999.8165
38	5034.7406
39	4872.4077
40	4713.6099
41	4431.2374
42	4572.316
43	4791.7404
44	4427.6819
45	4715.591
46	4699.2084
47	4410.9341
48	4724.2225
49	4537.8646
50	4422.2088
51	4441.0183
52	5032.3012
53	4552.4444
54	5181.8138
55	4897.1475
56	4915.2662
57	5572.8185
58	5387.7943
59	5890.9141
60	5562.0389
61	5807.5284
62	5801.1497
63	5419.1747
64	5544.1101
65	5512.0731
66	5331.4749
67	5927.4917
68	5155.0402
69	5520.6691
70	5112.8626
71	5186.2386
72	4907.9801
73	4732.2499
74	5114.7539
75	4860.3299
76	4756.7343
77	5076.0791
78	4695.6159
79	4597.1079
80	4704.5095
81	4802.5247
82	4698.5739
83	4512.1919
84	4841.7087
85	4826.0279
86	4874.8732
87	4931.45
88	5291.0544
89	5375.7911
90	5060.3145
91	5089.9069
92	5335.5608
93	5078.2729
94	5371.4651
95	5093.6786
96	5462.0483
97	5163.6371
98	5055.7662
99	5093.5663
100	4952.257
101	4862.0347
102	4630.2215
103	4421.5875
104	4291.7591
105	4536.1652
106	3930.9639
107	3728.1631
108	3834.8027
109	4225.6563
110	3816.1336
111	3981.4109
112	4071.6842
113	3689.9522
114	3858.5073
115	4378.2776
116	4406.0497
117	4094.4175
118	4254.1094
119	4466.5942
120	4314.3616
121	4486.4086
122	4433.4719
123	4343.6732
124	4273.0658
125	4506.3189
126	4465.3
127	4464.3255
128	4616.8209
129	4349.9411
130	4822.8892
131	4212.0607
132	4457.5331
133	4487.2932
134	3934.753
135	3957.0379
136	4049.844
137	3900.0576
138	3723.6775
139	3864.5683
140	4507.7382
141	3647.4303
142	3860.2881
143	3886.0807
144	4134.9252
145	4029.9304
146	4008.7352
147	4320.9506
148	4495.4237
149	4073.2971
150	4318.5468
151	4318.8992
152	3996.2791
153	4043.7623
154	4281.8322
155	4391.3906
156	3839.5394
157	4331.6499
158	4058.0632
159	4327.4311
160	4270.0303
161	4464.1075
162	4256.2561
163	4485.3295
164	4234.2195
165	3832.4797
166	4058.8325
167	3950.7111
168	3685.6885
169	4112.8078
170	3683.3258
171	3549.2991
172	3885.7339
173	3844.606
174	3832.8559
175	3845.9202
176	3858.9528
177	3705.9177
178	3864.9967
179	3936.3091
180	3867.9871
181	3718.7171
182	3863.8031
183	4094.705
184	3965.5457
185	4248.74
186	4168.6882
187	4308.0956
188	4179.5304
189	4461.9185
190	4460.8789
191	3829.6015
192	4202.155
193	4217.2182
194	4037.6329
195	3968.4476
196	3958.1214
197	3612.5297
198	3320.5888
199	3536.1918
200	3377.3771
