Position	Value
-200	1508.7079
-199	1574.0779
-198	1379.5705
-197	1540.0239
-196	1669.1584
-195	1548.2661
-194	1649.1191
-193	1863.7102
-192	2090.3537
-191	1779.5729
-190	1951.1636
-189	2136.3577
-188	1787.2646
-187	2122.7884
-186	1927.644
-185	1797.3528
-184	1754.1032
-183	1816.7356
-182	1616.2271
-181	1509.463
-180	1570.8088
-179	1718.5632
-178	1652.5709
-177	1456.1095
-176	1565.3827
-175	1567.2555
-174	1499.7012
-173	1544.7354
-172	1642.3751
-171	1598.7502
-170	1839.7897
-169	1694.1654
-168	1499.9289
-167	1580.3505
-166	1751.5313
-165	1628.2508
-164	1730.0315
-163	1831.6216
-162	1595.2911
-161	1906.6138
-160	1753.3479
-159	1663.5417
-158	1597.6983
-157	1757.8532
-156	1606.0878
-155	1758.4355
-154	1681.6498
-153	1543.9802
-152	1562.5423
-151	1899.8347
-150	1900.0889
-149	1615.8782
-148	1960.0702
-147	1746.48
-146	1350.094
-145	1570.9618
-144	1604.3188
-143	1678.2074
-142	1588.0465
-141	1422.3264
-140	1702.9636
-139	1480.1432
-138	1360.7436
-137	1501.9517
-136	1578.0247
-135	1462.5638
-134	1480.9182
-133	1686.5847
-132	1789.2651
-131	1447.8827
-130	1965.9291
-129	1926.0622
-128	2058.9665
-127	1827.1718
-126	1807.4567
-125	1914.9375
-124	1851.0236
-123	1702.9811
-122	1839.6884
-121	1868.0588
-120	1856.7894
-119	1742.3257
-118	1767.9545
-117	1801.8098
-116	2068.6118
-115	1959.0448
-114	1687.0837
-113	1509.1414
-112	1647.7555
-111	1716.5058
-110	1652.1359
-109	1843.585
-108	1638.3416
-107	1655.6953
-106	1733.3426
-105	1936.0095
-104	1949.522
-103	2073.1292
-102	1902.6795
-101	2117.8093
-100	2211.906
-99	2396.1497
-98	2141.3216
-97	2408.4586
-96	2496.6808
-95	2260.1712
-94	2284.3934
-93	2347.2881
-92	2551.9685
-91	2054.7204
-90	1958.4084
-89	2082.3592
-88	2152.2612
-87	2057.7738
-86	2030.5601
-85	1910.3876
-84	2018.9986
-83	1908.8195
-82	1888.1841
-81	1892.4186
-80	1954.5678
-79	1900.8276
-78	1974.8311
-77	1986.3246
-76	1994.356
-75	1979.4721
-74	2227.4619
-73	1858.0875
-72	2260.3
-71	2292.2771
-70	2276.4207
-69	2440.9127
-68	2346.5481
-67	2505.559
-66	2282.8611
-65	2481.7092
-64	2532.3603
-63	2244.2526
-62	2410.7527
-61	2569.0059
-60	2555.0343
-59	2485.4135
-58	1924.2108
-57	2249.8406
-56	1809.2055
-55	1922.5022
-54	1954.7323
-53	1668.1572
-52	1925.032
-51	1711.0221
-50	1696.4918
-49	1684.2658
-48	1873.2459
-47	1688.0888
-46	1707.6813
-45	1810.1113
-44	1645.5603
-43	1639.8952
-42	1698.594
-41	1606.8044
-40	1833.0044
-39	1885.8906
-38	2115.4895
-37	2011.4857
-36	2393.7095
-35	2545.699
-34	2362.1914
-33	2716.4442
-32	3020.3675
-31	2752.9853
-30	2523.2955
-29	2635.6704
-28	2162.931
-27	1917.7208
-26	1979.3112
-25	2067.4014
-24	1939.7283
-23	1931.1707
-22	2178.2271
-21	2068.1868
-20	1926.7516
-19	2134.63
-18	2153.7671
-17	2222.6448
-16	2163.1868
-15	2447.8091
-14	2269.1301
-13	2551.8877
-12	2827.5538
-11	3045.0926
-10	3758.3646
-9	3573.0833
-8	3879.1057
-7	4120.0859
-6	4410.8307
-5	4676.0142
-4	5949.9676
-3	6239.3553
-2	7107.8593
-1	7450.5326
0	39836.3206
1	7450.5326
2	7107.8593
3	6239.3553
4	5949.9676
5	4676.0142
6	4410.8307
7	4120.0859
8	3879.1057
9	3573.0833
10	3758.3646
11	3045.0926
12	2827.5538
13	2551.8877
14	2269.1301
15	2447.8091
16	2163.1868
17	2222.6448
18	2153.7671
19	2134.63
20	1926.7516
21	2068.1868
22	2178.2271
23	1931.1707
24	1939.7283
25	2067.4014
26	1979.3112
27	1917.7208
28	2162.931
29	2635.6704
30	2523.2955
31	2752.9853
32	3020.3675
33	2716.4442
34	2362.1914
35	2545.699
36	2393.7095
37	2011.4857
38	2115.4895
39	1885.8906
40	1833.0044
41	1606.8044
42	1698.594
43	1639.8952
44	1645.5603
45	1810.1113
46	1707.6813
47	1688.0888
48	1873.2459
49	1684.2658
50	1696.4918
51	1711.0221
52	1925.032
53	1668.1572
54	1954.7323
55	1922.5022
56	1809.2055
57	2249.8406
58	1924.2108
59	2485.4135
60	2555.0343
61	2569.0059
62	2410.7527
63	2244.2526
64	2532.3603
65	2481.7092
66	2282.8611
67	2505.559
68	2346.5481
69	2440.9127
70	2276.4207
71	2292.2771
72	2260.3
73	1858.0875
74	2227.4619
75	1979.4721
76	1994.356
77	1986.3246
78	1974.8311
79	1900.8276
80	1954.5678
81	1892.4186
82	1888.1841
83	1908.8195
84	2018.9986
85	1910.3876
86	2030.5601
87	2057.7738
88	2152.2612
89	2082.3592
90	1958.4084
91	2054.7204
92	2551.9685
93	2347.2881
94	2284.3934
95	2260.1712
96	2496.6808
97	2408.4586
98	2141.3216
99	2396.1497
100	2211.906
101	2117.8093
102	1902.6795
103	2073.1292
104	1949.522
105	1936.0095
106	1733.3426
107	1655.6953
108	1638.3416
109	1843.585
110	1652.1359
111	1716.5058
112	1647.7555
113	1509.1414
114	1687.0837
115	1959.0448
116	2068.6118
117	1801.8098
118	1767.9545
119	1742.3257
120	1856.7894
121	1868.0588
122	1839.6884
123	1702.9811
124	1851.0236
125	1914.9375
126	1807.4567
127	1827.1718
128	2058.9665
129	1926.0622
130	1965.9291
131	1447.8827
132	1789.2651
133	1686.5847
134	1480.9182
135	1462.5638
136	1578.0247
137	1501.9517
138	1360.7436
139	1480.1432
140	1702.9636
141	1422.3264
142	1588.0465
143	1678.2074
144	1604.3188
145	1570.9618
146	1350.094
147	1746.48
148	1960.0702
149	1615.8782
150	1900.0889
151	1899.8347
152	1562.5423
153	1543.9802
154	1681.6498
155	1758.4355
156	1606.0878
157	1757.8532
158	1597.6983
159	1663.5417
160	1753.3479
161	1906.6138
162	1595.2911
163	1831.6216
164	1730.0315
165	1628.2508
166	1751.5313
167	1580.3505
168	1499.9289
169	1694.1654
170	1839.7897
171	1598.7502
172	1642.3751
173	1544.7354
174	1499.7012
175	1567.2555
176	1565.3827
177	1456.1095
178	1652.5709
179	1718.5632
180	1570.8088
181	1509.463
182	1616.2271
183	1816.7356
184	1754.1032
185	1797.3528
186	1927.644
187	2122.7884
188	1787.2646
189	2136.3577
190	1951.1636
191	1779.5729
192	2090.3537
193	1863.7102
194	1649.1191
195	1548.2661
196	1669.1584
197	1540.0239
198	1379.5705
199	1574.0779
200	1508.7079
