Position	Value
-200	44401.3437
-199	44166.9777
-198	44567.9198
-197	44426.8376
-196	45148.3669
-195	45596.5294
-194	45484.4961
-193	46177.5508
-192	45887.7101
-191	45578.09
-190	46484.7712
-189	46668.9043
-188	45861.0352
-187	46113.2091
-186	46629.8318
-185	46226.9027
-184	46156.8045
-183	46529.3116
-182	46444.102
-181	45980.1035
-180	46188.938
-179	46757.2568
-178	45693.6644
-177	45492.3575
-176	45833.9314
-175	46234.0723
-174	45848.2154
-173	45507.2758
-172	45527.9696
-171	45734.2528
-170	45908.2469
-169	46142.3617
-168	46457.567
-167	46316.4515
-166	47248.352
-165	46954.965
-164	47026.5405
-163	47632.6628
-162	47600.7126
-161	48442.9928
-160	48586.4013
-159	48566.0773
-158	48452.0822
-157	48392.942
-156	48952.9609
-155	48478.6919
-154	48487.63
-153	48090.0827
-152	47807.0603
-151	48210.0286
-150	47782.0214
-149	47789.7071
-148	47712.7795
-147	48103.1445
-146	47531.3456
-145	47119.9751
-144	47511.914
-143	47367.8794
-142	46845.6808
-141	47145.3913
-140	47084.9667
-139	47482.2035
-138	47243.4838
-137	48005.0461
-136	47921.7624
-135	48866.5594
-134	49106.6035
-133	49647.1594
-132	48971.3724
-131	49908.3651
-130	50052.8082
-129	50235.126
-128	50671.2569
-127	51368.2929
-126	50888.9229
-125	51380.0493
-124	50647.9863
-123	51077.2257
-122	50465.2978
-121	50803.5439
-120	50178.0373
-119	49853.7774
-118	50049.3123
-117	49566.5573
-116	49170.9147
-115	48711.4706
-114	48578.8033
-113	47927.5782
-112	48147.0598
-111	47535.1187
-110	48345.4511
-109	48801.2872
-108	49042.7298
-107	49990.0221
-106	49434.5425
-105	50400.7518
-104	50728.8835
-103	51427.3756
-102	51048.6509
-101	51429.4116
-100	52747.9968
-99	53058.68
-98	53748.1158
-97	53887.446
-96	54337.5614
-95	55034.9529
-94	55098.1994
-93	56121.1621
-92	54780.9546
-91	55415.9006
-90	55788.9422
-89	55123.3049
-88	55691.4102
-87	53980.7295
-86	53776.5654
-85	53793.2667
-84	53341.2522
-83	52431.6037
-82	52188.2031
-81	52393.8536
-80	51677.3459
-79	52208.7281
-78	51646.5073
-77	51599.0294
-76	50888.1729
-75	52602.5901
-74	52463.627
-73	52612.5293
-72	52645.4228
-71	53593.1956
-70	53757.4312
-69	54600.3714
-68	55211.0719
-67	56114.8882
-66	56793.1819
-65	57152.367
-64	57725.6335
-63	59055.5961
-62	58397.1214
-61	58668.2703
-60	59333.2129
-59	58077.968
-58	56665.5564
-57	57218.4999
-56	55832.4853
-55	54499.9599
-54	54331.081
-53	52631.1893
-52	52571.966
-51	51418.6745
-50	52149.9304
-49	52430.988
-48	51956.9836
-47	52373.3293
-46	51181.3882
-45	52210.8083
-44	51885.9607
-43	53482.9276
-42	52710.236
-41	53248.9183
-40	54461.3148
-39	53954.2328
-38	55101.8733
-37	56294.5648
-36	58385.6834
-35	59648.798
-34	61331.2219
-33	63929.2428
-32	63723.9208
-31	65865.4768
-30	66500.8872
-29	66094.6497
-28	65153.2782
-27	61062.9972
-26	58821.3861
-25	57886.7815
-24	57491.7417
-23	56719.2293
-22	56766.5828
-21	57463.2777
-20	58382.3174
-19	59778.4765
-18	61243.6296
-17	61833.1937
-16	62833.1318
-15	64429.8015
-14	66125.5192
-13	68373.7094
-12	71051.75
-11	73342.131
-10	76669.1485
-9	79476.3185
-8	81952.4841
-7	86950.5029
-6	90086.3651
-5	96100.2354
-4	100688.9017
-3	103877.6308
-2	107579.0497
-1	110937.696
0	569079.022
1	110937.696
2	107579.0497
3	103877.6308
4	100688.9017
5	96100.2354
6	90086.3651
7	86950.5029
8	81952.4841
9	79476.3185
10	76669.1485
11	73342.131
12	71051.75
13	68373.7094
14	66125.5192
15	64429.8015
16	62833.1318
17	61833.1937
18	61243.6296
19	59778.4765
20	58382.3174
21	57463.2777
22	56766.5828
23	56719.2293
24	57491.7417
25	57886.7815
26	58821.3861
27	61062.9972
28	65153.2782
29	66094.6497
30	66500.8872
31	65865.4768
32	63723.9208
33	63929.2428
34	61331.2219
35	59648.798
36	58385.6834
37	56294.5648
38	55101.8733
39	53954.2328
40	54461.3148
41	53248.9183
42	52710.236
43	53482.9276
44	51885.9607
45	52210.8083
46	51181.3882
47	52373.3293
48	51956.9836
49	52430.988
50	52149.9304
51	51418.6745
52	52571.966
53	52631.1893
54	54331.081
55	54499.9599
56	55832.4853
57	57218.4999
58	56665.5564
59	58077.968
60	59333.2129
61	58668.2703
62	58397.1214
63	59055.5961
64	57725.6335
65	57152.367
66	56793.1819
67	56114.8882
68	55211.0719
69	54600.3714
70	53757.4312
71	53593.1956
72	52645.4228
73	52612.5293
74	52463.627
75	52602.5901
76	50888.1729
77	51599.0294
78	51646.5073
79	52208.7281
80	51677.3459
81	52393.8536
82	52188.2031
83	52431.6037
84	53341.2522
85	53793.2667
86	53776.5654
87	53980.7295
88	55691.4102
89	55123.3049
90	55788.9422
91	55415.9006
92	54780.9546
93	56121.1621
94	55098.1994
95	55034.9529
96	54337.5614
97	53887.446
98	53748.1158
99	53058.68
100	52747.9968
101	51429.4116
102	51048.6509
103	51427.3756
104	50728.8835
105	50400.7518
106	49434.5425
107	49990.0221
108	49042.7298
109	48801.2872
110	48345.4511
111	47535.1187
112	48147.0598
113	47927.5782
114	48578.8033
115	48711.4706
116	49170.9147
117	49566.5573
118	50049.3123
119	49853.7774
120	50178.0373
121	50803.5439
122	50465.2978
123	51077.2257
124	50647.9863
125	51380.0493
126	50888.9229
127	51368.2929
128	50671.2569
129	50235.126
130	50052.8082
131	49908.3651
132	48971.3724
133	49647.1594
134	49106.6035
135	48866.5594
136	47921.7624
137	48005.0461
138	47243.4838
139	47482.2035
140	47084.9667
141	47145.3913
142	46845.6808
143	47367.8794
144	47511.914
145	47119.9751
146	47531.3456
147	48103.1445
148	47712.7795
149	47789.7071
150	47782.0214
151	48210.0286
152	47807.0603
153	48090.0827
154	48487.63
155	48478.6919
156	48952.9609
157	48392.942
158	48452.0822
159	48566.0773
160	48586.4013
161	48442.9928
162	47600.7126
163	47632.6628
164	47026.5405
165	46954.965
166	47248.352
167	46316.4515
168	46457.567
169	46142.3617
170	45908.2469
171	45734.2528
172	45527.9696
173	45507.2758
174	45848.2154
175	46234.0723
176	45833.9314
177	45492.3575
178	45693.6644
179	46757.2568
180	46188.938
181	45980.1035
182	46444.102
183	46529.3116
184	46156.8045
185	46226.9027
186	46629.8318
187	46113.2091
188	45861.0352
189	46668.9043
190	46484.7712
191	45578.09
192	45887.7101
193	46177.5508
194	45484.4961
195	45596.5294
196	45148.3669
197	44426.8376
198	44567.9198
199	44166.9777
200	44401.3437
