Position	Value
-200	1616.4456
-199	1485.3512
-198	1594.7093
-197	1612.9133
-196	1796.0646
-195	1803.1677
-194	1892.471
-193	1930.3727
-192	1958.7565
-191	1918.6882
-190	1852.2408
-189	1962.0099
-188	1839.6038
-187	2094.3839
-186	2031.7552
-185	2104.2515
-184	1752.1963
-183	1909.4311
-182	1771.6514
-181	1759.3692
-180	1747.1891
-179	1814.0135
-178	1630.968
-177	1735.9528
-176	1707.4281
-175	1775.4082
-174	1727.1492
-173	1648.7207
-172	1799.3026
-171	1820.3579
-170	1851.6991
-169	1821.8539
-168	1684.5996
-167	1815.5089
-166	1814.5028
-165	1850.9417
-164	2049.0331
-163	2111.6561
-162	1788.1437
-161	2142.4511
-160	2027.7588
-159	2054.1162
-158	2096.9607
-157	2167.8587
-156	2144.5686
-155	2101.5868
-154	2285.4595
-153	2136.2732
-152	2171.054
-151	2323.7709
-150	2412.802
-149	2223.6902
-148	2325.7301
-147	2495.1407
-146	2260.6193
-145	2277.5794
-144	2360.3634
-143	2361.3169
-142	2428.7006
-141	2254.9358
-140	2352.2335
-139	2177.7554
-138	2097.2027
-137	2098.3497
-136	2219.4345
-135	2046.5535
-134	1987.5156
-133	2140.7383
-132	2234.1985
-131	1943.2121
-130	2174.6259
-129	2143.9342
-128	2172.1676
-127	1943.8029
-126	2270.9896
-125	2349.0855
-124	1970.3379
-123	2153.3095
-122	2091.2943
-121	2110.5305
-120	2048.4854
-119	2123.1449
-118	2040.6872
-117	1916.1721
-116	2384.6407
-115	2186.453
-114	2019.9928
-113	1851.7664
-112	2126.1713
-111	1996.8365
-110	2007.8745
-109	2092.0385
-108	2096.213
-107	1878.047
-106	1964.6092
-105	2170.4724
-104	2081.4798
-103	2163.198
-102	2079.6228
-101	2191.4596
-100	2248.7427
-99	2397.0914
-98	2323.0895
-97	2656.2913
-96	2681.565
-95	2298.3862
-94	2571.2321
-93	2748.0111
-92	2723.3458
-91	2661.9179
-90	2495.8195
-89	2711.1749
-88	2675.8019
-87	2742.0372
-86	2518.9123
-85	2402.7395
-84	2500.8037
-83	2719.1175
-82	2579.3129
-81	2586.7022
-80	2710.6296
-79	2562.7186
-78	2724.5
-77	2771.6452
-76	2731.065
-75	2600.3208
-74	2660.9228
-73	2615.7294
-72	2715.2916
-71	2639.6026
-70	2773.2443
-69	2698.3444
-68	2587.0211
-67	2982.1918
-66	2774.1177
-65	2950.1583
-64	2891.8011
-63	2681.0354
-62	2675.5968
-61	3052.5814
-60	3000.0974
-59	2769.3604
-58	2581.145
-57	2722.8528
-56	2626.6098
-55	2663.3915
-54	2437.6614
-53	2254.0824
-52	2299.3296
-51	2177.1945
-50	2323.987
-49	2302.2761
-48	2384.8637
-47	2338.0132
-46	2303.7996
-45	2622.8095
-44	2435.1247
-43	2319.9669
-42	2372.7147
-41	2003.401
-40	2223.5581
-39	2282.6353
-38	2539.7343
-37	2467.9864
-36	2939.9322
-35	3023.9332
-34	3034.2595
-33	3178.8658
-32	3232.8516
-31	2985.3026
-30	2973.1051
-29	3014.0916
-28	2447.6301
-27	2293.3808
-26	2344.0429
-25	2444.219
-24	2368.8455
-23	2441.0082
-22	2415.2544
-21	2463.5558
-20	2449.1136
-19	2635.8392
-18	2845.1486
-17	2879.1883
-16	2924.3768
-15	3225.3715
-14	3170.055
-13	3554.5452
-12	3690.2693
-11	4314.2096
-10	4863.1012
-9	5023.257
-8	5522.2717
-7	6173.2716
-6	7093.195
-5	7828.0069
-4	9329.5164
-3	10022.9605
-2	12216.9661
-1	15044.779
0	62507.1525
1	15044.779
2	12216.9661
3	10022.9605
4	9329.5164
5	7828.0069
6	7093.195
7	6173.2716
8	5522.2717
9	5023.257
10	4863.1012
11	4314.2096
12	3690.2693
13	3554.5452
14	3170.055
15	3225.3715
16	2924.3768
17	2879.1883
18	2845.1486
19	2635.8392
20	2449.1136
21	2463.5558
22	2415.2544
23	2441.0082
24	2368.8455
25	2444.219
26	2344.0429
27	2293.3808
28	2447.6301
29	3014.0916
30	2973.1051
31	2985.3026
32	3232.8516
33	3178.8658
34	3034.2595
35	3023.9332
36	2939.9322
37	2467.9864
38	2539.7343
39	2282.6353
40	2223.5581
41	2003.401
42	2372.7147
43	2319.9669
44	2435.1247
45	2622.8095
46	2303.7996
47	2338.0132
48	2384.8637
49	2302.2761
50	2323.987
51	2177.1945
52	2299.3296
53	2254.0824
54	2437.6614
55	2663.3915
56	2626.6098
57	2722.8528
58	2581.145
59	2769.3604
60	3000.0974
61	3052.5814
62	2675.5968
63	2681.0354
64	2891.8011
65	2950.1583
66	2774.1177
67	2982.1918
68	2587.0211
69	2698.3444
70	2773.2443
71	2639.6026
72	2715.2916
73	2615.7294
74	2660.9228
75	2600.3208
76	2731.065
77	2771.6452
78	2724.5
79	2562.7186
80	2710.6296
81	2586.7022
82	2579.3129
83	2719.1175
84	2500.8037
85	2402.7395
86	2518.9123
87	2742.0372
88	2675.8019
89	2711.1749
90	2495.8195
91	2661.9179
92	2723.3458
93	2748.0111
94	2571.2321
95	2298.3862
96	2681.565
97	2656.2913
98	2323.0895
99	2397.0914
100	2248.7427
101	2191.4596
102	2079.6228
103	2163.198
104	2081.4798
105	2170.4724
106	1964.6092
107	1878.047
108	2096.213
109	2092.0385
110	2007.8745
111	1996.8365
112	2126.1713
113	1851.7664
114	2019.9928
115	2186.453
116	2384.6407
117	1916.1721
118	2040.6872
119	2123.1449
120	2048.4854
121	2110.5305
122	2091.2943
123	2153.3095
124	1970.3379
125	2349.0855
126	2270.9896
127	1943.8029
128	2172.1676
129	2143.9342
130	2174.6259
131	1943.2121
132	2234.1985
133	2140.7383
134	1987.5156
135	2046.5535
136	2219.4345
137	2098.3497
138	2097.2027
139	2177.7554
140	2352.2335
141	2254.9358
142	2428.7006
143	2361.3169
144	2360.3634
145	2277.5794
146	2260.6193
147	2495.1407
148	2325.7301
149	2223.6902
150	2412.802
151	2323.7709
152	2171.054
153	2136.2732
154	2285.4595
155	2101.5868
156	2144.5686
157	2167.8587
158	2096.9607
159	2054.1162
160	2027.7588
161	2142.4511
162	1788.1437
163	2111.6561
164	2049.0331
165	1850.9417
166	1814.5028
167	1815.5089
168	1684.5996
169	1821.8539
170	1851.6991
171	1820.3579
172	1799.3026
173	1648.7207
174	1727.1492
175	1775.4082
176	1707.4281
177	1735.9528
178	1630.968
179	1814.0135
180	1747.1891
181	1759.3692
182	1771.6514
183	1909.4311
184	1752.1963
185	2104.2515
186	2031.7552
187	2094.3839
188	1839.6038
189	1962.0099
190	1852.2408
191	1918.6882
192	1958.7565
193	1930.3727
194	1892.471
195	1803.1677
196	1796.0646
197	1612.9133
198	1594.7093
199	1485.3512
200	1616.4456
