Position	Value
-200	954.1776
-199	988.289
-198	1007.0055
-197	995.8136
-196	1024.0895
-195	956.6298
-194	981.9323
-193	940.0433
-192	1028.5584
-191	1007.0445
-190	1038.0642
-189	1066.049
-188	1100.5879
-187	1080.2226
-186	1075.5877
-185	1016.7622
-184	1003.1774
-183	1016.0374
-182	995.577
-181	955.6354
-180	970.1436
-179	1014.7372
-178	1048.7576
-177	1030.1015
-176	1092.6179
-175	1074.46
-174	1073.5633
-173	1124.6687
-172	1095.3683
-171	1149.3928
-170	1121.6656
-169	1132.2093
-168	1110.5674
-167	1116.0623
-166	1158.3386
-165	1167.3699
-164	1110.8821
-163	1185.1927
-162	1115.7745
-161	1168.0327
-160	1173.5084
-159	1179.657
-158	1196.163
-157	1166.8916
-156	1185.7219
-155	1161.1236
-154	1197.7571
-153	1153.1084
-152	1176.8845
-151	1222.8522
-150	1208.1913
-149	1208.5104
-148	1169.4248
-147	1182.677
-146	1165.8402
-145	1105.7749
-144	1180.7437
-143	1184.0052
-142	1191.1909
-141	1231.605
-140	1231.1027
-139	1195.4904
-138	1213.9872
-137	1181.6356
-136	1214.3509
-135	1193.8669
-134	1187.0599
-133	1185.837
-132	1257.732
-131	1271.5713
-130	1258.0609
-129	1172.9405
-128	1156.3507
-127	1187.9684
-126	1112.3535
-125	1125.9017
-124	1129.9563
-123	1146.6754
-122	1151.5343
-121	1178.9181
-120	1236.2777
-119	1180.7112
-118	1224.2475
-117	1230.4165
-116	1255.4242
-115	1203.9252
-114	1266.1636
-113	1242.8049
-112	1218.0358
-111	1219.8265
-110	1237.5785
-109	1208.9533
-108	1193.4471
-107	1121.6628
-106	1150.6583
-105	1145.1548
-104	1111.9706
-103	1033.1494
-102	1070.9984
-101	1001.564
-100	1093.8464
-99	1101.3162
-98	1135.153
-97	1084.0004
-96	1143.3699
-95	1150.1539
-94	1163.6662
-93	1245.8336
-92	1302.9181
-91	1318.5533
-90	1285.9891
-89	1363.4487
-88	1389.3146
-87	1340.4674
-86	1349.3476
-85	1410.9084
-84	1412.5461
-83	1345.3996
-82	1355.2233
-81	1374.2053
-80	1386.1581
-79	1455.7567
-78	1430.1407
-77	1399.8712
-76	1425.2788
-75	1524.8515
-74	1490.1054
-73	1547.2935
-72	1527.852
-71	1539.4176
-70	1519.9073
-69	1588.3135
-68	1557.5463
-67	1587.0089
-66	1632.0713
-65	1531.9724
-64	1468.9412
-63	1493.4908
-62	1399.8461
-61	1359.9995
-60	1367.2775
-59	1406.3628
-58	1330.9108
-57	1338.2796
-56	1307.7035
-55	1334.7176
-54	1340.5289
-53	1393.4661
-52	1382.1673
-51	1394.4628
-50	1428.0065
-49	1395.66
-48	1364.8985
-47	1398.1546
-46	1477.8957
-45	1538.1649
-44	1532.468
-43	1500.9669
-42	1393.6229
-41	1450.5199
-40	1417.5214
-39	1417.8453
-38	1362.699
-37	1371.138
-36	1464.7888
-35	1496.7416
-34	1491.707
-33	1515.5661
-32	1414.2264
-31	1356.2391
-30	1342.9187
-29	1278.6916
-28	1365.7568
-27	1330.692
-26	1360.3701
-25	1379.2582
-24	1463.6196
-23	1476.292
-22	1607.9631
-21	1622.8686
-20	1692.0095
-19	1677.317
-18	1796.9275
-17	1858.4074
-16	1968.8002
-15	2034.6069
-14	2252.9206
-13	2500.3089
-12	2770.7479
-11	3042.7549
-10	3374.9488
-9	3855.0526
-8	4247.1987
-7	4691.4368
-6	5288.8176
-5	6035.3522
-4	7226.3204
-3	8598.1695
-2	10163.1252
-1	13139.1454
0	49443.2182
1	13139.1454
2	10163.1252
3	8598.1695
4	7226.3204
5	6035.3522
6	5288.8176
7	4691.4368
8	4247.1987
9	3855.0526
10	3374.9488
11	3042.7549
12	2770.7479
13	2500.3089
14	2252.9206
15	2034.6069
16	1968.8002
17	1858.4074
18	1796.9275
19	1677.317
20	1692.0095
21	1622.8686
22	1607.9631
23	1476.292
24	1463.6196
25	1379.2582
26	1360.3701
27	1330.692
28	1365.7568
29	1278.6916
30	1342.9187
31	1356.2391
32	1414.2264
33	1515.5661
34	1491.707
35	1496.7416
36	1464.7888
37	1371.138
38	1362.699
39	1417.8453
40	1417.5214
41	1450.5199
42	1393.6229
43	1500.9669
44	1532.468
45	1538.1649
46	1477.8957
47	1398.1546
48	1364.8985
49	1395.66
50	1428.0065
51	1394.4628
52	1382.1673
53	1393.4661
54	1340.5289
55	1334.7176
56	1307.7035
57	1338.2796
58	1330.9108
59	1406.3628
60	1367.2775
61	1359.9995
62	1399.8461
63	1493.4908
64	1468.9412
65	1531.9724
66	1632.0713
67	1587.0089
68	1557.5463
69	1588.3135
70	1519.9073
71	1539.4176
72	1527.852
73	1547.2935
74	1490.1054
75	1524.8515
76	1425.2788
77	1399.8712
78	1430.1407
79	1455.7567
80	1386.1581
81	1374.2053
82	1355.2233
83	1345.3996
84	1412.5461
85	1410.9084
86	1349.3476
87	1340.4674
88	1389.3146
89	1363.4487
90	1285.9891
91	1318.5533
92	1302.9181
93	1245.8336
94	1163.6662
95	1150.1539
96	1143.3699
97	1084.0004
98	1135.153
99	1101.3162
100	1093.8464
101	1001.564
102	1070.9984
103	1033.1494
104	1111.9706
105	1145.1548
106	1150.6583
107	1121.6628
108	1193.4471
109	1208.9533
110	1237.5785
111	1219.8265
112	1218.0358
113	1242.8049
114	1266.1636
115	1203.9252
116	1255.4242
117	1230.4165
118	1224.2475
119	1180.7112
120	1236.2777
121	1178.9181
122	1151.5343
123	1146.6754
124	1129.9563
125	1125.9017
126	1112.3535
127	1187.9684
128	1156.3507
129	1172.9405
130	1258.0609
131	1271.5713
132	1257.732
133	1185.837
134	1187.0599
135	1193.8669
136	1214.3509
137	1181.6356
138	1213.9872
139	1195.4904
140	1231.1027
141	1231.605
142	1191.1909
143	1184.0052
144	1180.7437
145	1105.7749
146	1165.8402
147	1182.677
148	1169.4248
149	1208.5104
150	1208.1913
151	1222.8522
152	1176.8845
153	1153.1084
154	1197.7571
155	1161.1236
156	1185.7219
157	1166.8916
158	1196.163
159	1179.657
160	1173.5084
161	1168.0327
162	1115.7745
163	1185.1927
164	1110.8821
165	1167.3699
166	1158.3386
167	1116.0623
168	1110.5674
169	1132.2093
170	1121.6656
171	1149.3928
172	1095.3683
173	1124.6687
174	1073.5633
175	1074.46
176	1092.6179
177	1030.1015
178	1048.7576
179	1014.7372
180	970.1436
181	955.6354
182	995.577
183	1016.0374
184	1003.1774
185	1016.7622
186	1075.5877
187	1080.2226
188	1100.5879
189	1066.049
190	1038.0642
191	1007.0445
192	1028.5584
193	940.0433
194	981.9323
195	956.6298
196	1024.0895
197	995.8136
198	1007.0055
199	988.289
200	954.1776
