Position	Value
-200	158129.5428
-199	158859.7784
-198	158539.1801
-197	158567.5543
-196	157414.6336
-195	157221.2553
-194	156993.8029
-193	156325.227
-192	156887.7939
-191	156150.3553
-190	156909.5284
-189	157038.03
-188	156433.605
-187	157258.4177
-186	158447.9064
-185	158298.4745
-184	156948.1562
-183	158236.574
-182	159223.8272
-181	157196.9516
-180	159165.8662
-179	159208.1616
-178	158044.9728
-177	158531.4051
-176	157585.8864
-175	158334.2208
-174	159331.0421
-173	158590.1974
-172	160084.9315
-171	159909.9044
-170	159824.1736
-169	160792.5552
-168	160620.5095
-167	160247.6693
-166	159903.0406
-165	161730.0206
-164	162369.9965
-163	162754.0793
-162	163793.213
-161	162838.3766
-160	163350.087
-159	163521.8868
-158	163844.7698
-157	163398.8478
-156	163567.0704
-155	164494.572
-154	164281.5974
-153	163660.8354
-152	163745.6972
-151	165163.5886
-150	163693.8212
-149	164143.4591
-148	165064.2454
-147	165053.2747
-146	163616.597
-145	163756.0577
-144	164137.6191
-143	163373.7175
-142	163415.8478
-141	164292.1278
-140	162978.225
-139	162383.4696
-138	163799.2339
-137	164946.1871
-136	165428.0488
-135	166447.783
-134	167493.7915
-133	166359.0826
-132	166324.8356
-131	166764.8092
-130	167271.2371
-129	168185.2596
-128	167957.4882
-127	169275.472
-126	168250.7838
-125	167643.2045
-124	168051.5705
-123	167248.2887
-122	166097.0232
-121	166409.1848
-120	166685.4813
-119	166388.0206
-118	166759.2929
-117	166374.403
-116	164681.1677
-115	163982.9499
-114	165411.0727
-113	165228.8356
-112	165052.5061
-111	166022.3815
-110	167545.9075
-109	168833.9965
-108	169554.2192
-107	170952.2373
-106	172206.9157
-105	174221.4418
-104	175337.2545
-103	174890.9014
-102	174637.6959
-101	175255.1009
-100	175896.6776
-99	176033.647
-98	178107.9148
-97	177909.1281
-96	179421.7776
-95	178174.9184
-94	177718.989
-93	178916.4579
-92	179630.9985
-91	179087.2714
-90	179817.5189
-89	180650.4338
-88	180460.8884
-87	181222.8661
-86	182234.0546
-85	183102.6877
-84	184168.151
-83	182900.4651
-82	182732.7177
-81	183517.2582
-80	182970.9723
-79	183535.1687
-78	183775.6771
-77	183980.4374
-76	184347.998
-75	185440.6291
-74	186884.579
-73	188661.5296
-72	189037.6955
-71	190558.0678
-70	190979.2125
-69	190467.3806
-68	190462.8624
-67	191183.5555
-66	190728.0185
-65	191600.1251
-64	190685.7251
-63	191628.5524
-62	192649.0637
-61	192715.8935
-60	192802.1274
-59	193010.0909
-58	193667.9657
-57	194429.9694
-56	194076.8394
-55	194412.8524
-54	195547.4705
-53	194674.55
-52	195241.7227
-51	196191.0425
-50	196123.88
-49	197505.7422
-48	198247.4227
-47	198918.224
-46	199748.39
-45	202902.4777
-44	202441.7843
-43	205868.0886
-42	208814.8558
-41	209808.9169
-40	212046.0905
-39	214598.2041
-38	217422.243
-37	220513.2883
-36	223309.5956
-35	225874.7475
-34	228895.4213
-33	230920.6896
-32	231042.3974
-31	232103.0866
-30	230862.2535
-29	228556.892
-28	227613.3425
-27	227743.5622
-26	227267.1801
-25	226675.7125
-24	222555.3572
-23	216179.3805
-22	216484.3733
-21	219558.5617
-20	219627.5099
-19	223072.327
-18	229337.6472
-17	234033.3197
-16	239572.4722
-15	245680.3739
-14	253892.259
-13	263041.3005
-12	273436.2207
-11	283434.3938
-10	296934.4515
-9	311143.3022
-8	324128.6273
-7	342659.0944
-6	364638.3155
-5	387752.505
-4	416323.4485
-3	452480.0567
-2	480188.3003
-1	548739.4157
0	1075825.0549
1	548739.4157
2	480188.3003
3	452480.0567
4	416323.4485
5	387752.505
6	364638.3155
7	342659.0944
8	324128.6273
9	311143.3022
10	296934.4515
11	283434.3938
12	273436.2207
13	263041.3005
14	253892.259
15	245680.3739
16	239572.4722
17	234033.3197
18	229337.6472
19	223072.327
20	219627.5099
21	219558.5617
22	216484.3733
23	216179.3805
24	222555.3572
25	226675.7125
26	227267.1801
27	227743.5622
28	227613.3425
29	228556.892
30	230862.2535
31	232103.0866
32	231042.3974
33	230920.6896
34	228895.4213
35	225874.7475
36	223309.5956
37	220513.2883
38	217422.243
39	214598.2041
40	212046.0905
41	209808.9169
42	208814.8558
43	205868.0886
44	202441.7843
45	202902.4777
46	199748.39
47	198918.224
48	198247.4227
49	197505.7422
50	196123.88
51	196191.0425
52	195241.7227
53	194674.55
54	195547.4705
55	194412.8524
56	194076.8394
57	194429.9694
58	193667.9657
59	193010.0909
60	192802.1274
61	192715.8935
62	192649.0637
63	191628.5524
64	190685.7251
65	191600.1251
66	190728.0185
67	191183.5555
68	190462.8624
69	190467.3806
70	190979.2125
71	190558.0678
72	189037.6955
73	188661.5296
74	186884.579
75	185440.6291
76	184347.998
77	183980.4374
78	183775.6771
79	183535.1687
80	182970.9723
81	183517.2582
82	182732.7177
83	182900.4651
84	184168.151
85	183102.6877
86	182234.0546
87	181222.8661
88	180460.8884
89	180650.4338
90	179817.5189
91	179087.2714
92	179630.9985
93	178916.4579
94	177718.989
95	178174.9184
96	179421.7776
97	177909.1281
98	178107.9148
99	176033.647
100	175896.6776
101	175255.1009
102	174637.6959
103	174890.9014
104	175337.2545
105	174221.4418
106	172206.9157
107	170952.2373
108	169554.2192
109	168833.9965
110	167545.9075
111	166022.3815
112	165052.5061
113	165228.8356
114	165411.0727
115	163982.9499
116	164681.1677
117	166374.403
118	166759.2929
119	166388.0206
120	166685.4813
121	166409.1848
122	166097.0232
123	167248.2887
124	168051.5705
125	167643.2045
126	168250.7838
127	169275.472
128	167957.4882
129	168185.2596
130	167271.2371
131	166764.8092
132	166324.8356
133	166359.0826
134	167493.7915
135	166447.783
136	165428.0488
137	164946.1871
138	163799.2339
139	162383.4696
140	162978.225
141	164292.1278
142	163415.8478
143	163373.7175
144	164137.6191
145	163756.0577
146	163616.597
147	165053.2747
148	165064.2454
149	164143.4591
150	163693.8212
151	165163.5886
152	163745.6972
153	163660.8354
154	164281.5974
155	164494.572
156	163567.0704
157	163398.8478
158	163844.7698
159	163521.8868
160	163350.087
161	162838.3766
162	163793.213
163	162754.0793
164	162369.9965
165	161730.0206
166	159903.0406
167	160247.6693
168	160620.5095
169	160792.5552
170	159824.1736
171	159909.9044
172	160084.9315
173	158590.1974
174	159331.0421
175	158334.2208
176	157585.8864
177	158531.4051
178	158044.9728
179	159208.1616
180	159165.8662
181	157196.9516
182	159223.8272
183	158236.574
184	156948.1562
185	158298.4745
186	158447.9064
187	157258.4177
188	156433.605
189	157038.03
190	156909.5284
191	156150.3553
192	156887.7939
193	156325.227
194	156993.8029
195	157221.2553
196	157414.6336
197	158567.5543
198	158539.1801
199	158859.7784
200	158129.5428
