Position	Value
-200	2698.3416
-199	2672.8753
-198	2726.1224
-197	2824.9238
-196	3058.0622
-195	3089.8165
-194	3078.7933
-193	3308.3016
-192	3416.6545
-191	3240.9287
-190	3231.458
-189	3411.995
-188	3011.651
-187	3594.5703
-186	3264.2748
-185	3357.0876
-184	3126.1876
-183	3040.4137
-182	3196.565
-181	2933.3237
-180	3196.9498
-179	3041.2175
-178	2933.9104
-177	2792.7057
-176	2988.3614
-175	3184.0103
-174	3008.7358
-173	3039.025
-172	3139.9854
-171	2990.538
-170	3201.3628
-169	3252.4625
-168	3036.8696
-167	3052.7936
-166	3082.1366
-165	3143.5486
-164	3180.4331
-163	3486.071
-162	3161.0397
-161	3306.0149
-160	3222.8992
-159	3279.9351
-158	3217.8151
-157	3364.2374
-156	3082.5948
-155	3349.8318
-154	3336.7706
-153	3256.309
-152	3401.7271
-151	3573.1012
-150	3737.5575
-149	3318.48
-148	3530.8389
-147	3562.5643
-146	3044.0534
-145	3245.8326
-144	3556.2496
-143	3362.8542
-142	3283.3745
-141	3075.5922
-140	3304.6115
-139	3179.7574
-138	2987.4173
-137	3050.0287
-136	3124.4428
-135	3132.8719
-134	3134.817
-133	3376.3564
-132	3527.6226
-131	3233.1276
-130	3467.2772
-129	3379.8284
-128	3544.9073
-127	3528.8107
-126	3406.9373
-125	3688.2887
-124	3239.7847
-123	3512.1242
-122	3459.4304
-121	3416.3771
-120	3413.3918
-119	3431.7785
-118	3408.8469
-117	3343.6258
-116	3768.3468
-115	3644.9891
-114	3178.2606
-113	3100.7525
-112	3363.0025
-111	3247.0106
-110	3253.9555
-109	3377.1692
-108	3250.7912
-107	3178.9337
-106	3312.6391
-105	3539.3374
-104	3500.6318
-103	3636.109
-102	3624.1198
-101	3828.9592
-100	3960.667
-99	4163.7372
-98	4067.6104
-97	4144.9685
-96	4391.1497
-95	3832.0886
-94	4272.6777
-93	4081.6367
-92	4267.5985
-91	4253.3652
-90	4199.7981
-89	4272.8172
-88	4280.1857
-87	4176.1193
-86	3928.6721
-85	3952.4441
-84	3902.1948
-83	3878.6684
-82	3949.3574
-81	3919.7967
-80	3772.183
-79	3719.941
-78	3872.1922
-77	4069.8896
-76	4050.3775
-75	3953.1574
-74	4084.0101
-73	3930.8269
-72	4324.7862
-71	4116.1907
-70	4134.9851
-69	4674.5612
-68	4182.6391
-67	4655.1503
-66	4433.2228
-65	4623.7191
-64	4504.5657
-63	4339.4408
-62	4609.3122
-61	4691.3235
-60	4673.7626
-59	4656.2792
-58	4164.3605
-57	4638.1436
-56	4298.8256
-55	4128.0885
-54	4216.9097
-53	3839.97
-52	3878.8021
-51	3525.036
-50	3772.1516
-49	3674.6257
-48	3931.4293
-47	3679.5994
-46	3867.821
-45	3896.6435
-44	3771.5539
-43	3697.0722
-42	3676.4373
-41	3432.2858
-40	3998.862
-39	4043.5928
-38	4172.8179
-37	4275.7655
-36	4766.9608
-35	4784.537
-34	4848.0062
-33	5138.556
-32	5372.345
-31	5024.3114
-30	5068.0289
-29	5110.3356
-28	4128.724
-27	4100.1212
-26	4073.5719
-25	4202.3077
-24	4014.6112
-23	4265.9682
-22	4110.7594
-21	4248.8237
-20	4000.4832
-19	4304.2105
-18	4396.0603
-17	4508.2014
-16	4480.5354
-15	5005.8438
-14	5006.6458
-13	5473.2459
-12	5858.8073
-11	6512.2682
-10	7549.328
-9	7443.2697
-8	8163.2603
-7	8640.9254
-6	9370.7013
-5	9918.4198
-4	11972.1561
-3	12739.2025
-2	14774.9366
-1	16742.9546
0	68346.6096
1	16742.9546
2	14774.9366
3	12739.2025
4	11972.1561
5	9918.4198
6	9370.7013
7	8640.9254
8	8163.2603
9	7443.2697
10	7549.328
11	6512.2682
12	5858.8073
13	5473.2459
14	5006.6458
15	5005.8438
16	4480.5354
17	4508.2014
18	4396.0603
19	4304.2105
20	4000.4832
21	4248.8237
22	4110.7594
23	4265.9682
24	4014.6112
25	4202.3077
26	4073.5719
27	4100.1212
28	4128.724
29	5110.3356
30	5068.0289
31	5024.3114
32	5372.345
33	5138.556
34	4848.0062
35	4784.537
36	4766.9608
37	4275.7655
38	4172.8179
39	4043.5928
40	3998.862
41	3432.2858
42	3676.4373
43	3697.0722
44	3771.5539
45	3896.6435
46	3867.821
47	3679.5994
48	3931.4293
49	3674.6257
50	3772.1516
51	3525.036
52	3878.8021
53	3839.97
54	4216.9097
55	4128.0885
56	4298.8256
57	4638.1436
58	4164.3605
59	4656.2792
60	4673.7626
61	4691.3235
62	4609.3122
63	4339.4408
64	4504.5657
65	4623.7191
66	4433.2228
67	4655.1503
68	4182.6391
69	4674.5612
70	4134.9851
71	4116.1907
72	4324.7862
73	3930.8269
74	4084.0101
75	3953.1574
76	4050.3775
77	4069.8896
78	3872.1922
79	3719.941
80	3772.183
81	3919.7967
82	3949.3574
83	3878.6684
84	3902.1948
85	3952.4441
86	3928.6721
87	4176.1193
88	4280.1857
89	4272.8172
90	4199.7981
91	4253.3652
92	4267.5985
93	4081.6367
94	4272.6777
95	3832.0886
96	4391.1497
97	4144.9685
98	4067.6104
99	4163.7372
100	3960.667
101	3828.9592
102	3624.1198
103	3636.109
104	3500.6318
105	3539.3374
106	3312.6391
107	3178.9337
108	3250.7912
109	3377.1692
110	3253.9555
111	3247.0106
112	3363.0025
113	3100.7525
114	3178.2606
115	3644.9891
116	3768.3468
117	3343.6258
118	3408.8469
119	3431.7785
120	3413.3918
121	3416.3771
122	3459.4304
123	3512.1242
124	3239.7847
125	3688.2887
126	3406.9373
127	3528.8107
128	3544.9073
129	3379.8284
130	3467.2772
131	3233.1276
132	3527.6226
133	3376.3564
134	3134.817
135	3132.8719
136	3124.4428
137	3050.0287
138	2987.4173
139	3179.7574
140	3304.6115
141	3075.5922
142	3283.3745
143	3362.8542
144	3556.2496
145	3245.8326
146	3044.0534
147	3562.5643
148	3530.8389
149	3318.48
150	3737.5575
151	3573.1012
152	3401.7271
153	3256.309
154	3336.7706
155	3349.8318
156	3082.5948
157	3364.2374
158	3217.8151
159	3279.9351
160	3222.8992
161	3306.0149
162	3161.0397
163	3486.071
164	3180.4331
165	3143.5486
166	3082.1366
167	3052.7936
168	3036.8696
169	3252.4625
170	3201.3628
171	2990.538
172	3139.9854
173	3039.025
174	3008.7358
175	3184.0103
176	2988.3614
177	2792.7057
178	2933.9104
179	3041.2175
180	3196.9498
181	2933.3237
182	3196.565
183	3040.4137
184	3126.1876
185	3357.0876
186	3264.2748
187	3594.5703
188	3011.651
189	3411.995
190	3231.458
191	3240.9287
192	3416.6545
193	3308.3016
194	3078.7933
195	3089.8165
196	3058.0622
197	2824.9238
198	2726.1224
199	2672.8753
200	2698.3416
