Position	Value
-200	128.5644
-199	262.0279
-198	266.6111
-197	254.5218
-196	272.2661
-195	276.1639
-194	261.2086
-193	246.791
-192	259.0019
-191	257.3747
-190	246.4469
-189	250.7208
-188	238.0323
-187	232.6762
-186	235.7819
-185	232.6037
-184	231.8
-183	231.6696
-182	242.1889
-181	254.573
-180	253.5081
-179	253.1815
-178	249.5782
-177	268.7777
-176	280.8582
-175	297.4876
-174	287.362
-173	296.9246
-172	290.7468
-171	291.5736
-170	288.3252
-169	287.5789
-168	276.4054
-167	277.4711
-166	270.5103
-165	272.8478
-164	267.0888
-163	267.2387
-162	271.2454
-161	274.3195
-160	262.9664
-159	258.5788
-158	261.0099
-157	259.1381
-156	262.6829
-155	269.4907
-154	262.1086
-153	257.8686
-152	281.3419
-151	281.384
-150	279.469
-149	292.3727
-148	279.6498
-147	285.1654
-146	288.2883
-145	306.7659
-144	264.8864
-143	270.2759
-142	268.4241
-141	266.7508
-140	265.7425
-139	268.4161
-138	272.7357
-137	268.6887
-136	256.7946
-135	263.3639
-134	253.047
-133	268.0707
-132	261.2383
-131	236.7943
-130	241.3802
-129	234.0151
-128	241.9657
-127	247.6419
-126	260.1709
-125	262.4656
-124	262.3539
-123	256.4317
-122	252.2241
-121	254.4173
-120	276.0379
-119	286.1002
-118	275.1908
-117	271.2654
-116	287.4337
-115	278.1954
-114	273.9986
-113	279.2492
-112	265.1602
-111	272.7811
-110	244.9019
-109	261.3275
-108	258.4824
-107	255.676
-106	247.3619
-105	257.8666
-104	257.5688
-103	249.2781
-102	258.1398
-101	269.4085
-100	256.4769
-99	261.9307
-98	265.2176
-97	254.2137
-96	265.4785
-95	266.5066
-94	263.1388
-93	266.0665
-92	297.7692
-91	275.5332
-90	270.4765
-89	284.7359
-88	293.5449
-87	279.6085
-86	284.3176
-85	261.3135
-84	272.7578
-83	261.6807
-82	260.5117
-81	273.7262
-80	282.2602
-79	282.44
-78	263.9208
-77	264.744
-76	240.4513
-75	267.1749
-74	267.7041
-73	257.5579
-72	255.2928
-71	268.5189
-70	272.4728
-69	284.3007
-68	301.5802
-67	305.917
-66	299.8147
-65	282.5754
-64	292.0981
-63	286.3511
-62	304.4781
-61	285.3586
-60	293.5941
-59	285.5797
-58	266.334
-57	287.0902
-56	280.4688
-55	282.2374
-54	280.5369
-53	269.5271
-52	287.1061
-51	295.1498
-50	273.3977
-49	273.6249
-48	281.8261
-47	290.245
-46	301.542
-45	307.9148
-44	325.1655
-43	308.305
-42	314.7837
-41	319.3606
-40	323.8146
-39	286.3268
-38	289.9567
-37	307.8986
-36	307.4486
-35	293.9195
-34	319.6403
-33	314.9012
-32	324.2026
-31	320.7204
-30	317.5837
-29	319.9009
-28	329.3899
-27	339.8114
-26	324.1759
-25	327.4827
-24	316.8562
-23	306.0109
-22	270.2526
-21	300.5897
-20	310.4038
-19	305.2665
-18	340.2567
-17	355.2529
-16	390.3185
-15	408.1607
-14	427.2257
-13	422.7919
-12	439.7697
-11	447.3151
-10	460.587
-9	442.5019
-8	471.88
-7	518.1191
-6	587.8876
-5	732.5572
-4	1000.3557
-3	1359.7066
-2	1869.44
-1	2527.3277
0	23088.3929
1	2527.3277
2	1869.44
3	1359.7066
4	1000.3557
5	732.5572
6	587.8876
7	518.1191
8	471.88
9	442.5019
10	460.587
11	447.3151
12	439.7697
13	422.7919
14	427.2257
15	408.1607
16	390.3185
17	355.2529
18	340.2567
19	305.2665
20	310.4038
21	300.5897
22	270.2526
23	306.0109
24	316.8562
25	327.4827
26	324.1759
27	339.8114
28	329.3899
29	319.9009
30	317.5837
31	320.7204
32	324.2026
33	314.9012
34	319.6403
35	293.9195
36	307.4486
37	307.8986
38	289.9567
39	286.3268
40	323.8146
41	319.3606
42	314.7837
43	308.305
44	325.1655
45	307.9148
46	301.542
47	290.245
48	281.8261
49	273.6249
50	273.3977
51	295.1498
52	287.1061
53	269.5271
54	280.5369
55	282.2374
56	280.4688
57	287.0902
58	266.334
59	285.5797
60	293.5941
61	285.3586
62	304.4781
63	286.3511
64	292.0981
65	282.5754
66	299.8147
67	305.917
68	301.5802
69	284.3007
70	272.4728
71	268.5189
72	255.2928
73	257.5579
74	267.7041
75	267.1749
76	240.4513
77	264.744
78	263.9208
79	282.44
80	282.2602
81	273.7262
82	260.5117
83	261.6807
84	272.7578
85	261.3135
86	284.3176
87	279.6085
88	293.5449
89	284.7359
90	270.4765
91	275.5332
92	297.7692
93	266.0665
94	263.1388
95	266.5066
96	265.4785
97	254.2137
98	265.2176
99	261.9307
100	256.4769
101	269.4085
102	258.1398
103	249.2781
104	257.5688
105	257.8666
106	247.3619
107	255.676
108	258.4824
109	261.3275
110	244.9019
111	272.7811
112	265.1602
113	279.2492
114	273.9986
115	278.1954
116	287.4337
117	271.2654
118	275.1908
119	286.1002
120	276.0379
121	254.4173
122	252.2241
123	256.4317
124	262.3539
125	262.4656
126	260.1709
127	247.6419
128	241.9657
129	234.0151
130	241.3802
131	236.7943
132	261.2383
133	268.0707
134	253.047
135	263.3639
136	256.7946
137	268.6887
138	272.7357
139	268.4161
140	265.7425
141	266.7508
142	268.4241
143	270.2759
144	264.8864
145	306.7659
146	288.2883
147	285.1654
148	279.6498
149	292.3727
150	279.469
151	281.384
152	281.3419
153	257.8686
154	262.1086
155	269.4907
156	262.6829
157	259.1381
158	261.0099
159	258.5788
160	262.9664
161	274.3195
162	271.2454
163	267.2387
164	267.0888
165	272.8478
166	270.5103
167	277.4711
168	276.4054
169	287.5789
170	288.3252
171	291.5736
172	290.7468
173	296.9246
174	287.362
175	297.4876
176	280.8582
177	268.7777
178	249.5782
179	253.1815
180	253.5081
181	254.573
182	242.1889
183	231.6696
184	231.8
185	232.6037
186	235.7819
187	232.6762
188	238.0323
189	250.7208
190	246.4469
191	257.3747
192	259.0019
193	246.791
194	261.2086
195	276.1639
196	272.2661
197	254.5218
198	266.6111
199	262.0279
200	128.5644
