Position	Value
-200	212.6487
-199	426.4151
-198	453.0639
-197	431.439
-196	430.0975
-195	437.9986
-194	422.6689
-193	440.2461
-192	439.7763
-191	449.375
-190	452.5374
-189	435.0124
-188	470.5334
-187	513.3169
-186	486.8889
-185	466.2318
-184	459.521
-183	460.2596
-182	488.4337
-181	459.4236
-180	466.0659
-179	473.5354
-178	472.6582
-177	460.9903
-176	459.278
-175	499.9206
-174	506.4107
-173	490.7432
-172	499.8196
-171	515.1745
-170	477.3554
-169	486.3372
-168	469.6136
-167	477.2155
-166	492.8685
-165	450.7475
-164	500.4861
-163	421.8916
-162	433.6089
-161	459.8239
-160	479.403
-159	448.574
-158	439.5679
-157	426.8738
-156	433.1714
-155	444.3191
-154	473.7125
-153	473.6219
-152	484.1205
-151	474.4395
-150	456.0298
-149	472.5766
-148	455.5515
-147	435.1515
-146	453.7596
-145	479.185
-144	467.473
-143	475.8881
-142	500.5761
-141	460.3679
-140	494.4508
-139	495.211
-138	481.6985
-137	488.5475
-136	464.7332
-135	446.2311
-134	460.782
-133	470.4441
-132	507.7728
-131	499.1497
-130	466.0498
-129	483.0117
-128	453.1648
-127	457.5036
-126	485.0041
-125	489.7203
-124	501.787
-123	501.7621
-122	559.2623
-121	548.8971
-120	537.9479
-119	537.5533
-118	529.4438
-117	507.6888
-116	536.5509
-115	488.897
-114	517.4305
-113	470.2615
-112	493.7172
-111	529.7775
-110	530.3312
-109	521.9168
-108	521.2454
-107	521.1581
-106	482.1795
-105	498.0841
-104	487.6162
-103	495.0187
-102	477.6563
-101	498.8268
-100	473.4294
-99	500.7176
-98	491.1589
-97	522.3978
-96	470.6879
-95	456.5707
-94	445.772
-93	457.8436
-92	493.2747
-91	452.7785
-90	460.593
-89	483.0492
-88	456.9733
-87	457.8297
-86	479.4979
-85	501.7477
-84	491.049
-83	502.1287
-82	496.5615
-81	556.3194
-80	518.2829
-79	496.7816
-78	534.8523
-77	497.1386
-76	511.7818
-75	552.4053
-74	556.4073
-73	563.6182
-72	641.8842
-71	563.095
-70	594.4598
-69	572.7712
-68	580.8101
-67	615.3934
-66	610.9987
-65	614.395
-64	602.343
-63	561.7334
-62	593.6897
-61	539.9874
-60	603.3259
-59	606.8384
-58	613.0155
-57	606.3484
-56	617.6402
-55	672.0466
-54	648.084
-53	576.0982
-52	560.188
-51	564.6828
-50	589.029
-49	525.5469
-48	568.8681
-47	586.5406
-46	596.3289
-45	617.6827
-44	578.294
-43	609.2351
-42	579.4056
-41	610.3444
-40	602.923
-39	569.9896
-38	559.0571
-37	598.4454
-36	582.223
-35	668.0184
-34	656.4942
-33	700.7773
-32	644.4407
-31	676.9737
-30	680.5271
-29	680.289
-28	704.7752
-27	698.9569
-26	748.3521
-25	713.6966
-24	721.0125
-23	687.9702
-22	768.276
-21	760.4499
-20	829.9947
-19	839.0868
-18	843.5163
-17	907.5502
-16	961.7628
-15	1173.0523
-14	1155.5067
-13	1236.8405
-12	1313.8308
-11	1365.4717
-10	1400.5155
-9	1461.233
-8	1615.4743
-7	1676.0078
-6	1843.4875
-5	2074.8398
-4	2390.6363
-3	3045.9934
-2	4119.9221
-1	5329.6453
0	53636.7984
1	5329.6453
2	4119.9221
3	3045.9934
4	2390.6363
5	2074.8398
6	1843.4875
7	1676.0078
8	1615.4743
9	1461.233
10	1400.5155
11	1365.4717
12	1313.8308
13	1236.8405
14	1155.5067
15	1173.0523
16	961.7628
17	907.5502
18	843.5163
19	839.0868
20	829.9947
21	760.4499
22	768.276
23	687.9702
24	721.0125
25	713.6966
26	748.3521
27	698.9569
28	704.7752
29	680.289
30	680.5271
31	676.9737
32	644.4407
33	700.7773
34	656.4942
35	668.0184
36	582.223
37	598.4454
38	559.0571
39	569.9896
40	602.923
41	610.3444
42	579.4056
43	609.2351
44	578.294
45	617.6827
46	596.3289
47	586.5406
48	568.8681
49	525.5469
50	589.029
51	564.6828
52	560.188
53	576.0982
54	648.084
55	672.0466
56	617.6402
57	606.3484
58	613.0155
59	606.8384
60	603.3259
61	539.9874
62	593.6897
63	561.7334
64	602.343
65	614.395
66	610.9987
67	615.3934
68	580.8101
69	572.7712
70	594.4598
71	563.095
72	641.8842
73	563.6182
74	556.4073
75	552.4053
76	511.7818
77	497.1386
78	534.8523
79	496.7816
80	518.2829
81	556.3194
82	496.5615
83	502.1287
84	491.049
85	501.7477
86	479.4979
87	457.8297
88	456.9733
89	483.0492
90	460.593
91	452.7785
92	493.2747
93	457.8436
94	445.772
95	456.5707
96	470.6879
97	522.3978
98	491.1589
99	500.7176
100	473.4294
101	498.8268
102	477.6563
103	495.0187
104	487.6162
105	498.0841
106	482.1795
107	521.1581
108	521.2454
109	521.9168
110	530.3312
111	529.7775
112	493.7172
113	470.2615
114	517.4305
115	488.897
116	536.5509
117	507.6888
118	529.4438
119	537.5533
120	537.9479
121	548.8971
122	559.2623
123	501.7621
124	501.787
125	489.7203
126	485.0041
127	457.5036
128	453.1648
129	483.0117
130	466.0498
131	499.1497
132	507.7728
133	470.4441
134	460.782
135	446.2311
136	464.7332
137	488.5475
138	481.6985
139	495.211
140	494.4508
141	460.3679
142	500.5761
143	475.8881
144	467.473
145	479.185
146	453.7596
147	435.1515
148	455.5515
149	472.5766
150	456.0298
151	474.4395
152	484.1205
153	473.6219
154	473.7125
155	444.3191
156	433.1714
157	426.8738
158	439.5679
159	448.574
160	479.403
161	459.8239
162	433.6089
163	421.8916
164	500.4861
165	450.7475
166	492.8685
167	477.2155
168	469.6136
169	486.3372
170	477.3554
171	515.1745
172	499.8196
173	490.7432
174	506.4107
175	499.9206
176	459.278
177	460.9903
178	472.6582
179	473.5354
180	466.0659
181	459.4236
182	488.4337
183	460.2596
184	459.521
185	466.2318
186	486.8889
187	513.3169
188	470.5334
189	435.0124
190	452.5374
191	449.375
192	439.7763
193	440.2461
194	422.6689
195	437.9986
196	430.0975
197	431.439
198	453.0639
199	426.4151
200	212.6487
