Position	Value
-200	6.4365
-199	12.4087
-198	19.5158
-197	19.0333
-196	25.7286
-195	13.8631
-194	19.8741
-193	18.0502
-192	18.6713
-191	15.1233
-190	24.2402
-189	15.8024
-188	23.9165
-187	20.1851
-186	17.2628
-185	20.9697
-184	19.2336
-183	23.4334
-182	21.2627
-181	23.1624
-180	16.2265
-179	24.9479
-178	18.7754
-177	18.5678
-176	23.9455
-175	18.6235
-174	17.3897
-173	23.5646
-172	15.4408
-171	17.2279
-170	11.7324
-169	17.6207
-168	12.8479
-167	20.5995
-166	22.8769
-165	16.2924
-164	23.4575
-163	18.0645
-162	18.8249
-161	21.5752
-160	23.0277
-159	24.0511
-158	31.4425
-157	24.6333
-156	22.0627
-155	18.5116
-154	22.9041
-153	25.2077
-152	30.3602
-151	20.2565
-150	17.1534
-149	22.14
-148	21.5143
-147	18.4209
-146	21.9859
-145	33.09
-144	21.3264
-143	23.5514
-142	23.3701
-141	15.447
-140	21.2645
-139	24.6917
-138	27.4844
-137	21.9035
-136	26.8985
-135	21.7674
-134	16.849
-133	19.2546
-132	27.1207
-131	21.0538
-130	27.273
-129	25.665
-128	20.6721
-127	21.2023
-126	27.1118
-125	25.2885
-124	23.9228
-123	23.2667
-122	18.7653
-121	20.3894
-120	15.7708
-119	10.6329
-118	20.5723
-117	18.375
-116	24.2894
-115	24.5245
-114	22.0244
-113	20.2296
-112	28.8252
-111	18.3695
-110	13.3634
-109	23.4033
-108	24.6167
-107	17.0921
-106	18.4185
-105	16.3064
-104	10.8078
-103	18.0373
-102	26.3329
-101	15.0612
-100	10.8716
-99	14.4585
-98	17.1509
-97	15.056
-96	19.4534
-95	20.802
-94	27.8993
-93	17.4202
-92	24.5036
-91	17.6093
-90	25.5858
-89	21.7503
-88	26.4455
-87	24.0682
-86	23.4853
-85	19.7006
-84	20.3658
-83	22.4124
-82	28.372
-81	25.6423
-80	20.0239
-79	20.2578
-78	26.9344
-77	20.3684
-76	27.2474
-75	20.4561
-74	22.9768
-73	19.1582
-72	19.6283
-71	25.4556
-70	24.5875
-69	17.3747
-68	17.7495
-67	20.936
-66	18.2011
-65	22.9988
-64	19.8168
-63	19.3461
-62	23.8423
-61	23.1049
-60	24.5806
-59	23.8859
-58	26.0833
-57	22.1929
-56	24.2124
-55	29.1991
-54	32.5252
-53	26.9426
-52	17.8172
-51	20.0607
-50	29.4006
-49	23.8243
-48	16.6061
-47	16.3755
-46	26.3186
-45	17.3126
-44	32.2952
-43	31.6572
-42	22.0414
-41	19.7552
-40	24.4945
-39	24.2087
-38	19.8195
-37	25.89
-36	34.5083
-35	24.7618
-34	28.9416
-33	32.1179
-32	21.9768
-31	26.7606
-30	27.4831
-29	19.9202
-28	27.1455
-27	25.3711
-26	29.5134
-25	28.2427
-24	39.9053
-23	28.1437
-22	22.4352
-21	33.5331
-20	32.6305
-19	36.9747
-18	24.7782
-17	23.7006
-16	24.3113
-15	35.0067
-14	35.9163
-13	23.9094
-12	24.7055
-11	31.4938
-10	32.0418
-9	44.1966
-8	33.8318
-7	32.1739
-6	35.765
-5	38.2722
-4	53.1708
-3	72.8382
-2	90.1548
-1	150.1135
0	2631.9437
1	150.1135
2	90.1548
3	72.8382
4	53.1708
5	38.2722
6	35.765
7	32.1739
8	33.8318
9	44.1966
10	32.0418
11	31.4938
12	24.7055
13	23.9094
14	35.9163
15	35.0067
16	24.3113
17	23.7006
18	24.7782
19	36.9747
20	32.6305
21	33.5331
22	22.4352
23	28.1437
24	39.9053
25	28.2427
26	29.5134
27	25.3711
28	27.1455
29	19.9202
30	27.4831
31	26.7606
32	21.9768
33	32.1179
34	28.9416
35	24.7618
36	34.5083
37	25.89
38	19.8195
39	24.2087
40	24.4945
41	19.7552
42	22.0414
43	31.6572
44	32.2952
45	17.3126
46	26.3186
47	16.3755
48	16.6061
49	23.8243
50	29.4006
51	20.0607
52	17.8172
53	26.9426
54	32.5252
55	29.1991
56	24.2124
57	22.1929
58	26.0833
59	23.8859
60	24.5806
61	23.1049
62	23.8423
63	19.3461
64	19.8168
65	22.9988
66	18.2011
67	20.936
68	17.7495
69	17.3747
70	24.5875
71	25.4556
72	19.6283
73	19.1582
74	22.9768
75	20.4561
76	27.2474
77	20.3684
78	26.9344
79	20.2578
80	20.0239
81	25.6423
82	28.372
83	22.4124
84	20.3658
85	19.7006
86	23.4853
87	24.0682
88	26.4455
89	21.7503
90	25.5858
91	17.6093
92	24.5036
93	17.4202
94	27.8993
95	20.802
96	19.4534
97	15.056
98	17.1509
99	14.4585
100	10.8716
101	15.0612
102	26.3329
103	18.0373
104	10.8078
105	16.3064
106	18.4185
107	17.0921
108	24.6167
109	23.4033
110	13.3634
111	18.3695
112	28.8252
113	20.2296
114	22.0244
115	24.5245
116	24.2894
117	18.375
118	20.5723
119	10.6329
120	15.7708
121	20.3894
122	18.7653
123	23.2667
124	23.9228
125	25.2885
126	27.1118
127	21.2023
128	20.6721
129	25.665
130	27.273
131	21.0538
132	27.1207
133	19.2546
134	16.849
135	21.7674
136	26.8985
137	21.9035
138	27.4844
139	24.6917
140	21.2645
141	15.447
142	23.3701
143	23.5514
144	21.3264
145	33.09
146	21.9859
147	18.4209
148	21.5143
149	22.14
150	17.1534
151	20.2565
152	30.3602
153	25.2077
154	22.9041
155	18.5116
156	22.0627
157	24.6333
158	31.4425
159	24.0511
160	23.0277
161	21.5752
162	18.8249
163	18.0645
164	23.4575
165	16.2924
166	22.8769
167	20.5995
168	12.8479
169	17.6207
170	11.7324
171	17.2279
172	15.4408
173	23.5646
174	17.3897
175	18.6235
176	23.9455
177	18.5678
178	18.7754
179	24.9479
180	16.2265
181	23.1624
182	21.2627
183	23.4334
184	19.2336
185	20.9697
186	17.2628
187	20.1851
188	23.9165
189	15.8024
190	24.2402
191	15.1233
192	18.6713
193	18.0502
194	19.8741
195	13.8631
196	25.7286
197	19.0333
198	19.5158
199	12.4087
200	6.4365
