Position	Value
-200	2435.9455
-199	5039.6717
-198	5040.6677
-197	5074.6531
-196	5196.2522
-195	5321.2869
-194	5266.367
-193	5274.0675
-192	5493.1402
-191	5095.974
-190	5162.4779
-189	5129.323
-188	5236.8979
-187	5069.7701
-186	5309.4385
-185	5077.4146
-184	4965.8982
-183	5251.3379
-182	5209.0144
-181	5237.1423
-180	5053.8917
-179	5116.1589
-178	5076.9746
-177	5319.993
-176	5104.0569
-175	5200.8229
-174	5114.156
-173	5174.4593
-172	5151.01
-171	5243.3013
-170	5168.0471
-169	5177.0452
-168	5248.3017
-167	5243.1366
-166	5484.9616
-165	5249.8284
-164	5290.0589
-163	5454.8497
-162	5306.308
-161	5430.6704
-160	5232.9949
-159	5348.1035
-158	5431.6766
-157	5278.2066
-156	5333.6764
-155	5347.3407
-154	5284.3114
-153	5354.9552
-152	5373.4039
-151	5505.937
-150	5219.051
-149	5260.197
-148	5243.2492
-147	5307.2417
-146	5271.2488
-145	5418.7656
-144	5413.4397
-143	5280.5787
-142	5038.4583
-141	5296.8902
-140	5195.7985
-139	5072.8798
-138	5107.6903
-137	5110.7626
-136	5262.5143
-135	4991.8848
-134	5128.3418
-133	4981.0319
-132	5160.1402
-131	4945.2964
-130	5000.9473
-129	5026.4434
-128	5022.7455
-127	5042.9104
-126	5102.5009
-125	4969.7239
-124	5113.2483
-123	5014.4239
-122	5063.5221
-121	5037.7168
-120	5122.8623
-119	5253.7007
-118	5201.0936
-117	5384.205
-116	5299.1449
-115	5222.4433
-114	5502.315
-113	5406.0632
-112	5455.3193
-111	5570.7497
-110	5543.7576
-109	5510.7936
-108	5442.0014
-107	5446.2313
-106	5451.9758
-105	5195.2588
-104	5282.5088
-103	5138.176
-102	5012.4773
-101	5286.3741
-100	5153.8237
-99	5307.809
-98	5324.6814
-97	5174.6603
-96	5255.3203
-95	5432.3655
-94	5278.7351
-93	5314.4912
-92	5258.1375
-91	5211.5078
-90	5347.9151
-89	5374.1727
-88	5394.4257
-87	5441.409
-86	5456.2979
-85	5450.8864
-84	5567.5255
-83	5329.2149
-82	5581.9344
-81	5450.8191
-80	5420.2779
-79	5388.6148
-78	5346.044
-77	5172.545
-76	5169.5448
-75	5227.2036
-74	5253.6936
-73	5452.4389
-72	5692.149
-71	5592.0126
-70	5540.1934
-69	5546.9068
-68	5435.895
-67	5391.975
-66	5485.6871
-65	5470.2991
-64	5462.7384
-63	5412.424
-62	5496.0539
-61	5538.647
-60	5604.9372
-59	5627.7022
-58	5813.8807
-57	5750.7849
-56	5761.6585
-55	5808.9068
-54	5930.051
-53	5725.6155
-52	5848.857
-51	5665.3492
-50	5210.2508
-49	5304.072
-48	4970.9837
-47	5325.7784
-46	5101.0486
-45	5187.4999
-44	5173.2968
-43	5109.1963
-42	5157.9383
-41	4862.8192
-40	5192.6487
-39	5223.581
-38	5289.8021
-37	5293.4768
-36	5358.0039
-35	5467.0311
-34	5696.6778
-33	5721.3776
-32	5948.8953
-31	5878.0332
-30	6238.6021
-29	6536.0285
-28	6437.2351
-27	6542.6272
-26	6331.783
-25	6056.0671
-24	5543.8219
-23	5412.8569
-22	5261.5982
-21	5581.4001
-20	5874.4912
-19	6108.3322
-18	6293.1313
-17	6773.1499
-16	6950.6866
-15	7563.2874
-14	7870.5824
-13	8051.9355
-12	8788.7262
-11	9487.786
-10	10114.2512
-9	11542.7617
-8	13125.4438
-7	13955.4365
-6	16087.22
-5	18766.0531
-4	20200.4192
-3	23327.0457
-2	30790.2977
-1	30285.7832
0	149202.5758
1	30285.7832
2	30790.2977
3	23327.0457
4	20200.4192
5	18766.0531
6	16087.22
7	13955.4365
8	13125.4438
9	11542.7617
10	10114.2512
11	9487.786
12	8788.7262
13	8051.9355
14	7870.5824
15	7563.2874
16	6950.6866
17	6773.1499
18	6293.1313
19	6108.3322
20	5874.4912
21	5581.4001
22	5261.5982
23	5412.8569
24	5543.8219
25	6056.0671
26	6331.783
27	6542.6272
28	6437.2351
29	6536.0285
30	6238.6021
31	5878.0332
32	5948.8953
33	5721.3776
34	5696.6778
35	5467.0311
36	5358.0039
37	5293.4768
38	5289.8021
39	5223.581
40	5192.6487
41	4862.8192
42	5157.9383
43	5109.1963
44	5173.2968
45	5187.4999
46	5101.0486
47	5325.7784
48	4970.9837
49	5304.072
50	5210.2508
51	5665.3492
52	5848.857
53	5725.6155
54	5930.051
55	5808.9068
56	5761.6585
57	5750.7849
58	5813.8807
59	5627.7022
60	5604.9372
61	5538.647
62	5496.0539
63	5412.424
64	5462.7384
65	5470.2991
66	5485.6871
67	5391.975
68	5435.895
69	5546.9068
70	5540.1934
71	5592.0126
72	5692.149
73	5452.4389
74	5253.6936
75	5227.2036
76	5169.5448
77	5172.545
78	5346.044
79	5388.6148
80	5420.2779
81	5450.8191
82	5581.9344
83	5329.2149
84	5567.5255
85	5450.8864
86	5456.2979
87	5441.409
88	5394.4257
89	5374.1727
90	5347.9151
91	5211.5078
92	5258.1375
93	5314.4912
94	5278.7351
95	5432.3655
96	5255.3203
97	5174.6603
98	5324.6814
99	5307.809
100	5153.8237
101	5286.3741
102	5012.4773
103	5138.176
104	5282.5088
105	5195.2588
106	5451.9758
107	5446.2313
108	5442.0014
109	5510.7936
110	5543.7576
111	5570.7497
112	5455.3193
113	5406.0632
114	5502.315
115	5222.4433
116	5299.1449
117	5384.205
118	5201.0936
119	5253.7007
120	5122.8623
121	5037.7168
122	5063.5221
123	5014.4239
124	5113.2483
125	4969.7239
126	5102.5009
127	5042.9104
128	5022.7455
129	5026.4434
130	5000.9473
131	4945.2964
132	5160.1402
133	4981.0319
134	5128.3418
135	4991.8848
136	5262.5143
137	5110.7626
138	5107.6903
139	5072.8798
140	5195.7985
141	5296.8902
142	5038.4583
143	5280.5787
144	5413.4397
145	5418.7656
146	5271.2488
147	5307.2417
148	5243.2492
149	5260.197
150	5219.051
151	5505.937
152	5373.4039
153	5354.9552
154	5284.3114
155	5347.3407
156	5333.6764
157	5278.2066
158	5431.6766
159	5348.1035
160	5232.9949
161	5430.6704
162	5306.308
163	5454.8497
164	5290.0589
165	5249.8284
166	5484.9616
167	5243.1366
168	5248.3017
169	5177.0452
170	5168.0471
171	5243.3013
172	5151.01
173	5174.4593
174	5114.156
175	5200.8229
176	5104.0569
177	5319.993
178	5076.9746
179	5116.1589
180	5053.8917
181	5237.1423
182	5209.0144
183	5251.3379
184	4965.8982
185	5077.4146
186	5309.4385
187	5069.7701
188	5236.8979
189	5129.323
190	5162.4779
191	5095.974
192	5493.1402
193	5274.0675
194	5266.367
195	5321.2869
196	5196.2522
197	5074.6531
198	5040.6677
199	5039.6717
200	2435.9455
