Position	Value
-200	2.9466
-199	3.6362
-198	7.7345
-197	12.5396
-196	6.4711
-195	3.0909
-194	2.2696
-193	2.7029
-192	4.7556
-191	3.2669
-190	4.8758
-189	5.9879
-188	6.8475
-187	7.8454
-186	5.5545
-185	4.7264
-184	6.8912
-183	5.4326
-182	5.1731
-181	3.1828
-180	3.1507
-179	6.93
-178	8.9554
-177	14.2183
-176	11.1278
-175	6.4023
-174	7.2326
-173	5.8084
-172	6.1517
-171	3.4184
-170	5.1455
-169	4.7714
-168	9.8203
-167	7.9046
-166	8.8119
-165	4.8405
-164	3.9518
-163	7.6752
-162	3.3647
-161	3.6192
-160	2.4183
-159	6.3028
-158	4.5422
-157	4.8341
-156	5.4737
-155	5.2208
-154	7.1709
-153	5.6774
-152	4.3792
-151	5.7865
-150	4.6071
-149	3.6365
-148	8.8021
-147	3.36
-146	3.0478
-145	3.7177
-144	4.2172
-143	7.9188
-142	3.9084
-141	4.3339
-140	4.9164
-139	2.4218
-138	4.1175
-137	4.8927
-136	5.0159
-135	5.0675
-134	7.3329
-133	6.9882
-132	6.7728
-131	6.1839
-130	5.8321
-129	2.8579
-128	3.2154
-127	4.3584
-126	3.3103
-125	2.6016
-124	5.2998
-123	5.277
-122	7.395
-121	6.9189
-120	9.0731
-119	5.6966
-118	4.154
-117	3.0102
-116	6.2043
-115	4.2669
-114	5.5599
-113	8.2589
-112	3.6657
-111	6.138
-110	5.2206
-109	5.9355
-108	4.5387
-107	4.235
-106	3.7478
-105	3.6343
-104	4.9216
-103	4.9834
-102	4.2444
-101	5.1918
-100	7.2557
-99	10.8475
-98	8.5355
-97	6.6901
-96	5.9083
-95	6.1943
-94	3.7696
-93	5.9725
-92	6.3971
-91	4.0917
-90	5.8525
-89	5.5831
-88	7.2596
-87	5.4382
-86	4.3345
-85	5.4055
-84	5.9075
-83	7.4026
-82	8.4102
-81	5.7076
-80	8.0381
-79	11.7249
-78	10.0925
-77	10.597
-76	12.7985
-75	9.9848
-74	11.4468
-73	9.2279
-72	6.0419
-71	5.0046
-70	5.9583
-69	11.0516
-68	13.6054
-67	14.3774
-66	13.8836
-65	7.6488
-64	6.4907
-63	7.5143
-62	5.6757
-61	6.6341
-60	7.4267
-59	6.4875
-58	6.0115
-57	10.5672
-56	14.0485
-55	16.3284
-54	16.202
-53	9.2738
-52	11.8701
-51	4.7284
-50	9.1131
-49	10.8846
-48	7.4047
-47	8.2568
-46	13.7343
-45	15.4041
-44	16.6644
-43	15.863
-42	9.2829
-41	10.0465
-40	9.6535
-39	9.743
-38	9.7378
-37	10.7659
-36	6.9404
-35	10.1199
-34	14.9894
-33	14.9183
-32	10.4156
-31	5.667
-30	6.2309
-29	5.0571
-28	6.4548
-27	8.3965
-26	7.1579
-25	8.2369
-24	12.7019
-23	11.0703
-22	12.1554
-21	10.3216
-20	12.274
-19	10.8091
-18	8.8047
-17	5.0768
-16	9.2323
-15	5.8449
-14	12.372
-13	12.1687
-12	14.6985
-11	14.4407
-10	16.4418
-9	14.6789
-8	8.4436
-7	10.4211
-6	11.7937
-5	15.5304
-4	18.6146
-3	40.8872
-2	74.2377
-1	177.8832
0	2850.464
1	177.8832
2	74.2377
3	40.8872
4	18.6146
5	15.5304
6	11.7937
7	10.4211
8	8.4436
9	14.6789
10	16.4418
11	14.4407
12	14.6985
13	12.1687
14	12.372
15	5.8449
16	9.2323
17	5.0768
18	8.8047
19	10.8091
20	12.274
21	10.3216
22	12.1554
23	11.0703
24	12.7019
25	8.2369
26	7.1579
27	8.3965
28	6.4548
29	5.0571
30	6.2309
31	5.667
32	10.4156
33	14.9183
34	14.9894
35	10.1199
36	6.9404
37	10.7659
38	9.7378
39	9.743
40	9.6535
41	10.0465
42	9.2829
43	15.863
44	16.6644
45	15.4041
46	13.7343
47	8.2568
48	7.4047
49	10.8846
50	9.1131
51	4.7284
52	11.8701
53	9.2738
54	16.202
55	16.3284
56	14.0485
57	10.5672
58	6.0115
59	6.4875
60	7.4267
61	6.6341
62	5.6757
63	7.5143
64	6.4907
65	7.6488
66	13.8836
67	14.3774
68	13.6054
69	11.0516
70	5.9583
71	5.0046
72	6.0419
73	9.2279
74	11.4468
75	9.9848
76	12.7985
77	10.597
78	10.0925
79	11.7249
80	8.0381
81	5.7076
82	8.4102
83	7.4026
84	5.9075
85	5.4055
86	4.3345
87	5.4382
88	7.2596
89	5.5831
90	5.8525
91	4.0917
92	6.3971
93	5.9725
94	3.7696
95	6.1943
96	5.9083
97	6.6901
98	8.5355
99	10.8475
100	7.2557
101	5.1918
102	4.2444
103	4.9834
104	4.9216
105	3.6343
106	3.7478
107	4.235
108	4.5387
109	5.9355
110	5.2206
111	6.138
112	3.6657
113	8.2589
114	5.5599
115	4.2669
116	6.2043
117	3.0102
118	4.154
119	5.6966
120	9.0731
121	6.9189
122	7.395
123	5.277
124	5.2998
125	2.6016
126	3.3103
127	4.3584
128	3.2154
129	2.8579
130	5.8321
131	6.1839
132	6.7728
133	6.9882
134	7.3329
135	5.0675
136	5.0159
137	4.8927
138	4.1175
139	2.4218
140	4.9164
141	4.3339
142	3.9084
143	7.9188
144	4.2172
145	3.7177
146	3.0478
147	3.36
148	8.8021
149	3.6365
150	4.6071
151	5.7865
152	4.3792
153	5.6774
154	7.1709
155	5.2208
156	5.4737
157	4.8341
158	4.5422
159	6.3028
160	2.4183
161	3.6192
162	3.3647
163	7.6752
164	3.9518
165	4.8405
166	8.8119
167	7.9046
168	9.8203
169	4.7714
170	5.1455
171	3.4184
172	6.1517
173	5.8084
174	7.2326
175	6.4023
176	11.1278
177	14.2183
178	8.9554
179	6.93
180	3.1507
181	3.1828
182	5.1731
183	5.4326
184	6.8912
185	4.7264
186	5.5545
187	7.8454
188	6.8475
189	5.9879
190	4.8758
191	3.2669
192	4.7556
193	2.7029
194	2.2696
195	3.0909
196	6.4711
197	12.5396
198	7.7345
199	3.6362
200	2.9466
