Position	Value
-200	66341.0092
-199	133114.3145
-198	132576.8627
-197	132687.6091
-196	133119.1618
-195	132617.2085
-194	133206.4331
-193	132481.5142
-192	132984.1201
-191	133040.6289
-190	132554.1632
-189	132880.1047
-188	132424.3883
-187	133346.3869
-186	133808.6733
-185	133200.9956
-184	133016.8074
-183	133161.5457
-182	133051.1076
-181	133013.7444
-180	133073.4898
-179	133801.9269
-178	133105.1676
-177	133986.0336
-176	133996.7161
-175	133258.275
-174	133875.4453
-173	133674.1859
-172	134302.8677
-171	134102.0842
-170	134461.2438
-169	134084.4064
-168	134412.3222
-167	133675.4464
-166	134972.1495
-165	135446.2105
-164	135783.2206
-163	135593.6479
-162	135822.3098
-161	135167.8882
-160	134415.9766
-159	134524.6604
-158	135683.6371
-157	135636.4732
-156	135534.229
-155	135698.2895
-154	134539.0843
-153	135931.5141
-152	135791.9304
-151	135254.1072
-150	135161.0743
-149	135510.3198
-148	135371.6092
-147	135950.0644
-146	135384.5856
-145	135346.4751
-144	136206.8239
-143	135072.3745
-142	135169.1325
-141	135097.2752
-140	134872.6011
-139	133858.5989
-138	134394.9921
-137	133747.7623
-136	133905.752
-135	134041.134
-134	133885.6078
-133	133460.1529
-132	135154.8716
-131	133939.2694
-130	133919.3985
-129	133812.1
-128	134281.6752
-127	134147.1763
-126	135679.7231
-125	133932.5165
-124	134950.5243
-123	134160.9574
-122	135280.3282
-121	135059.3569
-120	135870.6861
-119	135899.4592
-118	135973.204
-117	138569.2674
-116	136514.3832
-115	136948.5493
-114	138523.0957
-113	138716.1939
-112	138805.0796
-111	138586.3056
-110	138483.9288
-109	137728.19
-108	138089.963
-107	137041.8496
-106	138101.6201
-105	137478.2027
-104	136931.4232
-103	136560.0078
-102	136892.0813
-101	137962.2468
-100	137112.9763
-99	138395.972
-98	138283.9581
-97	139091.3661
-96	139056.6609
-95	138689.6526
-94	139539.5628
-93	139199.6745
-92	139690.7314
-91	138745.6777
-90	139831.3502
-89	141242.5034
-88	140658.5424
-87	141968.251
-86	142367.3872
-85	143158.4531
-84	141893.9056
-83	142301.1842
-82	142469.6006
-81	141754.6727
-80	140902.1274
-79	140323.7477
-78	139451.1298
-77	139190.9662
-76	137853.7611
-75	137886.7226
-74	136432.1046
-73	137886.8515
-72	136695.3583
-71	137814.5579
-70	137791.3795
-69	137900.701
-68	137728.553
-67	138544.5012
-66	139274.4051
-65	139390.2089
-64	140986.2143
-63	141602.0352
-62	142120.8774
-61	143543.3631
-60	144017.8315
-59	145049.6719
-58	146279.3596
-57	147219.5161
-56	147815.3671
-55	148140.1531
-54	146665.3645
-53	146089.6738
-52	144454.5098
-51	142255.0557
-50	139625.2962
-49	138847.0718
-48	138015.0843
-47	137583.4359
-46	137630.9532
-45	138303.958
-44	137520.5848
-43	138013.9142
-42	138169.0287
-41	137777.4948
-40	139582.2822
-39	139253.7549
-38	141119.9185
-37	141543.8543
-36	144705.1631
-35	144796.4645
-34	145543.6883
-33	149169.1181
-32	151592.4327
-31	154040.9622
-30	159692.1736
-29	163688.0827
-28	167533.828
-27	169669.8948
-26	166218.4388
-25	163214.3368
-24	157401.6106
-23	151915.222
-22	151890.4933
-21	153647.4683
-20	157201.8698
-19	160111.7708
-18	163535.194
-17	168448.6231
-16	173012.9293
-15	177528.3386
-14	178302.9196
-13	183726.1001
-12	190206.2241
-11	197191.0296
-10	206804.6663
-9	216425.5413
-8	233552.4921
-7	246464.4542
-6	261324.1657
-5	290847.0637
-4	302535.0661
-3	331629.5314
-2	411498.3192
-1	423725.5122
0	1448155.1042
1	423725.5122
2	411498.3192
3	331629.5314
4	302535.0661
5	290847.0637
6	261324.1657
7	246464.4542
8	233552.4921
9	216425.5413
10	206804.6663
11	197191.0296
12	190206.2241
13	183726.1001
14	178302.9196
15	177528.3386
16	173012.9293
17	168448.6231
18	163535.194
19	160111.7708
20	157201.8698
21	153647.4683
22	151890.4933
23	151915.222
24	157401.6106
25	163214.3368
26	166218.4388
27	169669.8948
28	167533.828
29	163688.0827
30	159692.1736
31	154040.9622
32	151592.4327
33	149169.1181
34	145543.6883
35	144796.4645
36	144705.1631
37	141543.8543
38	141119.9185
39	139253.7549
40	139582.2822
41	137777.4948
42	138169.0287
43	138013.9142
44	137520.5848
45	138303.958
46	137630.9532
47	137583.4359
48	138015.0843
49	138847.0718
50	139625.2962
51	142255.0557
52	144454.5098
53	146089.6738
54	146665.3645
55	148140.1531
56	147815.3671
57	147219.5161
58	146279.3596
59	145049.6719
60	144017.8315
61	143543.3631
62	142120.8774
63	141602.0352
64	140986.2143
65	139390.2089
66	139274.4051
67	138544.5012
68	137728.553
69	137900.701
70	137791.3795
71	137814.5579
72	136695.3583
73	137886.8515
74	136432.1046
75	137886.7226
76	137853.7611
77	139190.9662
78	139451.1298
79	140323.7477
80	140902.1274
81	141754.6727
82	142469.6006
83	142301.1842
84	141893.9056
85	143158.4531
86	142367.3872
87	141968.251
88	140658.5424
89	141242.5034
90	139831.3502
91	138745.6777
92	139690.7314
93	139199.6745
94	139539.5628
95	138689.6526
96	139056.6609
97	139091.3661
98	138283.9581
99	138395.972
100	137112.9763
101	137962.2468
102	136892.0813
103	136560.0078
104	136931.4232
105	137478.2027
106	138101.6201
107	137041.8496
108	138089.963
109	137728.19
110	138483.9288
111	138586.3056
112	138805.0796
113	138716.1939
114	138523.0957
115	136948.5493
116	136514.3832
117	138569.2674
118	135973.204
119	135899.4592
120	135870.6861
121	135059.3569
122	135280.3282
123	134160.9574
124	134950.5243
125	133932.5165
126	135679.7231
127	134147.1763
128	134281.6752
129	133812.1
130	133919.3985
131	133939.2694
132	135154.8716
133	133460.1529
134	133885.6078
135	134041.134
136	133905.752
137	133747.7623
138	134394.9921
139	133858.5989
140	134872.6011
141	135097.2752
142	135169.1325
143	135072.3745
144	136206.8239
145	135346.4751
146	135384.5856
147	135950.0644
148	135371.6092
149	135510.3198
150	135161.0743
151	135254.1072
152	135791.9304
153	135931.5141
154	134539.0843
155	135698.2895
156	135534.229
157	135636.4732
158	135683.6371
159	134524.6604
160	134415.9766
161	135167.8882
162	135822.3098
163	135593.6479
164	135783.2206
165	135446.2105
166	134972.1495
167	133675.4464
168	134412.3222
169	134084.4064
170	134461.2438
171	134102.0842
172	134302.8677
173	133674.1859
174	133875.4453
175	133258.275
176	133996.7161
177	133986.0336
178	133105.1676
179	133801.9269
180	133073.4898
181	133013.7444
182	133051.1076
183	133161.5457
184	133016.8074
185	133200.9956
186	133808.6733
187	133346.3869
188	132424.3883
189	132880.1047
190	132554.1632
191	133040.6289
192	132984.1201
193	132481.5142
194	133206.4331
195	132617.2085
196	133119.1618
197	132687.6091
198	132576.8627
199	133114.3145
200	66341.0092
