Position	Value
-200	81613.9447
-199	163389.5296
-198	163588.2382
-197	163494.0187
-196	163370.3677
-195	164093.845
-194	163905.908
-193	163197.8529
-192	164469.9191
-191	163908.9456
-190	163352.134
-189	164589.1537
-188	163827.1251
-187	164873.3476
-186	164037.4494
-185	164070.847
-184	164368.5797
-183	164636.7617
-182	163721.4366
-181	163509.8119
-180	164316.5794
-179	164734.0124
-178	164791.544
-177	166474.0983
-176	165404.8972
-175	165345.6787
-174	166058.939
-173	165737.2544
-172	165530.038
-171	166127.8798
-170	166149.9884
-169	165492.5287
-168	165513.1897
-167	166011.8321
-166	167005.0092
-165	167585.608
-164	167033.1498
-163	166191.5611
-162	166538.4854
-161	165813.5609
-160	166507.6707
-159	165278.374
-158	166320.9741
-157	166069.8884
-156	167074.9604
-155	166648.3956
-154	165930.2832
-153	167679.4599
-152	167566.3704
-151	167274.3501
-150	167129.7891
-149	167531.5345
-148	167356.0838
-147	168958.0879
-146	168059.9127
-145	167950.707
-144	168218.809
-143	167845.8137
-142	167512.5973
-141	167788.6718
-140	166803.2919
-139	168358.2886
-138	168254.7745
-137	167646.6922
-136	167680.8991
-135	167402.9407
-134	167890.0884
-133	166764.3974
-132	168576.5045
-131	167623.5222
-130	167554.8295
-129	167067.1521
-128	166641.2787
-127	166252.7844
-126	166775.6646
-125	165784.3421
-124	166709.9111
-123	166249.7027
-122	166080.0388
-121	166386.4171
-120	166814.3085
-119	168109.5531
-118	167170.9766
-117	169855.2884
-116	168088.5182
-115	169654.0012
-114	169995.5791
-113	170035.4883
-112	169699.2717
-111	169145.6681
-110	169537.3875
-109	168507.198
-108	169266.6216
-107	168013.009
-106	168705.8309
-105	167894.0033
-104	167217.4724
-103	166769.5549
-102	166888.2031
-101	166908.2856
-100	166103.0331
-99	168717.1709
-98	168679.5654
-97	168899.8789
-96	169220.5778
-95	169047.291
-94	167820.0109
-93	170173.1767
-92	168990.4522
-91	169384.8603
-90	170402.3582
-89	171593.4528
-88	171766.9439
-87	171297.2703
-86	172244.2988
-85	172288.9815
-84	173913.7091
-83	172936.2444
-82	173247.8141
-81	172775.8824
-80	171107.7738
-79	170694.8376
-78	170136.3429
-77	169341.265
-76	168275.5549
-75	168595.0474
-74	168796.0623
-73	169347.362
-72	168711.6359
-71	169175.6513
-70	168800.3434
-69	169104.1993
-68	169617.886
-67	169432.003
-66	170516.8833
-65	171392.5861
-64	171688.8576
-63	174284.3225
-62	173694.1339
-61	174496.146
-60	176349.9649
-59	176585.9953
-58	178137.0221
-57	180201.0186
-56	179458.1494
-55	180490.1494
-54	178710.8403
-53	178217.2013
-52	175752.945
-51	172007.6372
-50	169590.2939
-49	168104.9308
-48	167335.0497
-47	167196.8802
-46	167646.0224
-45	166798.9793
-44	165934.22
-43	166698.812
-42	166222.915
-41	167311.5125
-40	168440.7148
-39	168676.8358
-38	170114.3082
-37	171711.4269
-36	174873.9701
-35	175812.012
-34	178472.7202
-33	181794.5425
-32	185250.5923
-31	189343.7667
-30	195364.8809
-29	201244.6971
-28	204742.4819
-27	206533.4352
-26	203458.6197
-25	198050.3262
-24	191943.4734
-23	184231.688
-22	183804.5474
-21	185366.5324
-20	189071.2508
-19	193104.316
-18	196864.4487
-17	201815.9799
-16	206940.9423
-15	210561.0109
-14	212662.4162
-13	218759.0423
-12	225812.4272
-11	233918.134
-10	244950.2014
-9	255850.3041
-8	274778.5883
-7	287686.5947
-6	306752.6015
-5	336795.2847
-4	344346.5513
-3	371911.7404
-2	463600.4415
-1	462471.4265
0	1571597.3705
1	462471.4265
2	463600.4415
3	371911.7404
4	344346.5513
5	336795.2847
6	306752.6015
7	287686.5947
8	274778.5883
9	255850.3041
10	244950.2014
11	233918.134
12	225812.4272
13	218759.0423
14	212662.4162
15	210561.0109
16	206940.9423
17	201815.9799
18	196864.4487
19	193104.316
20	189071.2508
21	185366.5324
22	183804.5474
23	184231.688
24	191943.4734
25	198050.3262
26	203458.6197
27	206533.4352
28	204742.4819
29	201244.6971
30	195364.8809
31	189343.7667
32	185250.5923
33	181794.5425
34	178472.7202
35	175812.012
36	174873.9701
37	171711.4269
38	170114.3082
39	168676.8358
40	168440.7148
41	167311.5125
42	166222.915
43	166698.812
44	165934.22
45	166798.9793
46	167646.0224
47	167196.8802
48	167335.0497
49	168104.9308
50	169590.2939
51	172007.6372
52	175752.945
53	178217.2013
54	178710.8403
55	180490.1494
56	179458.1494
57	180201.0186
58	178137.0221
59	176585.9953
60	176349.9649
61	174496.146
62	173694.1339
63	174284.3225
64	171688.8576
65	171392.5861
66	170516.8833
67	169432.003
68	169617.886
69	169104.1993
70	168800.3434
71	169175.6513
72	168711.6359
73	169347.362
74	168796.0623
75	168595.0474
76	168275.5549
77	169341.265
78	170136.3429
79	170694.8376
80	171107.7738
81	172775.8824
82	173247.8141
83	172936.2444
84	173913.7091
85	172288.9815
86	172244.2988
87	171297.2703
88	171766.9439
89	171593.4528
90	170402.3582
91	169384.8603
92	168990.4522
93	170173.1767
94	167820.0109
95	169047.291
96	169220.5778
97	168899.8789
98	168679.5654
99	168717.1709
100	166103.0331
101	166908.2856
102	166888.2031
103	166769.5549
104	167217.4724
105	167894.0033
106	168705.8309
107	168013.009
108	169266.6216
109	168507.198
110	169537.3875
111	169145.6681
112	169699.2717
113	170035.4883
114	169995.5791
115	169654.0012
116	168088.5182
117	169855.2884
118	167170.9766
119	168109.5531
120	166814.3085
121	166386.4171
122	166080.0388
123	166249.7027
124	166709.9111
125	165784.3421
126	166775.6646
127	166252.7844
128	166641.2787
129	167067.1521
130	167554.8295
131	167623.5222
132	168576.5045
133	166764.3974
134	167890.0884
135	167402.9407
136	167680.8991
137	167646.6922
138	168254.7745
139	168358.2886
140	166803.2919
141	167788.6718
142	167512.5973
143	167845.8137
144	168218.809
145	167950.707
146	168059.9127
147	168958.0879
148	167356.0838
149	167531.5345
150	167129.7891
151	167274.3501
152	167566.3704
153	167679.4599
154	165930.2832
155	166648.3956
156	167074.9604
157	166069.8884
158	166320.9741
159	165278.374
160	166507.6707
161	165813.5609
162	166538.4854
163	166191.5611
164	167033.1498
165	167585.608
166	167005.0092
167	166011.8321
168	165513.1897
169	165492.5287
170	166149.9884
171	166127.8798
172	165530.038
173	165737.2544
174	166058.939
175	165345.6787
176	165404.8972
177	166474.0983
178	164791.544
179	164734.0124
180	164316.5794
181	163509.8119
182	163721.4366
183	164636.7617
184	164368.5797
185	164070.847
186	164037.4494
187	164873.3476
188	163827.1251
189	164589.1537
190	163352.134
191	163908.9456
192	164469.9191
193	163197.8529
194	163905.908
195	164093.845
196	163370.3677
197	163494.0187
198	163588.2382
199	163389.5296
200	81613.9447
