Position	Value
-200	87454.7743
-199	175480.6352
-198	175273.5636
-197	175422.4993
-196	174415.2962
-195	175017.8757
-194	174869.4254
-193	174919.4145
-192	175956.7219
-191	176341.0098
-190	174926.6787
-189	175844.9022
-188	175479.1885
-187	176003.7432
-186	176769.2098
-185	176003.9478
-184	176037.4995
-183	176249.651
-182	176046.0739
-181	176548.2826
-180	176865.8241
-179	176289.5109
-178	176124.9509
-177	177897.1995
-176	177517.2293
-175	177207.8351
-174	177946.3376
-173	177981.7767
-172	178816.6178
-171	179142.5508
-170	178784.235
-169	177321.1713
-168	177521.7197
-167	177031.4406
-166	177643.9703
-165	177451.4563
-164	178381.1713
-163	176994.5953
-162	176519.1577
-161	177821.5178
-160	176639.6759
-159	176884.8201
-158	177913.0781
-157	177072.9827
-156	178008.975
-155	177581.9458
-154	178423.4119
-153	179533.6922
-152	178164.4264
-151	178267.2566
-150	177974.0014
-149	177757.0408
-148	179303.5077
-147	179364.7028
-146	179117.5918
-145	180518.8611
-144	181450.2317
-143	178981.3953
-142	178376.6132
-141	179835.2869
-140	178205.8734
-139	179199.112
-138	178385.9514
-137	177856.9458
-136	176816.6002
-135	177363.5022
-134	177084.9926
-133	177126.6375
-132	178291.7787
-131	177495.1476
-130	176884.7568
-129	177335.8943
-128	176931.4242
-127	177564.7263
-126	178107.9806
-125	177788.4927
-124	177780.4181
-123	178322.9475
-122	177711.9153
-121	177489.6693
-120	178665.1623
-119	179143.11
-118	178919.7274
-117	181844.488
-116	179024.2103
-115	180542.9296
-114	181314.0204
-113	181649.1304
-112	180904.0504
-111	180856.4674
-110	180165.6267
-109	180861.8341
-108	180322.018
-107	179994.2852
-106	180238.5342
-105	180846.1959
-104	178848.1785
-103	178825.053
-102	177584.024
-101	179105.5009
-100	177703.9174
-99	179975.3148
-98	179380.3113
-97	179956.0299
-96	180942.3551
-95	179764.2969
-94	179730.5511
-93	180647.8946
-92	180552.3397
-91	180930.8088
-90	181349.4003
-89	183032.3954
-88	183034.9862
-87	183628.6651
-86	184568.5063
-85	183568.0912
-84	184954.8819
-83	184042.5177
-82	182924.8795
-81	183515.5353
-80	181846.8648
-79	182863.7552
-78	181794.3161
-77	181310.4626
-76	178751.0331
-75	180414.7617
-74	177378.6883
-73	180457.5468
-72	179235.7726
-71	181159.3232
-70	180537.4178
-69	181635.9859
-68	180830.3607
-67	181499.1658
-66	182552.6378
-65	182272.0731
-64	184122.663
-63	184923.5093
-62	184773.769
-61	186228.77
-60	187771.2523
-59	187433.3392
-58	190413.6079
-57	190789.2802
-56	191858.3331
-55	193857.534
-54	193183.9966
-53	191495.7336
-52	188363.8528
-51	186728.6261
-50	182088.211
-49	179855.266
-48	178745.1961
-47	179120.7497
-46	179551.1226
-45	178170.2349
-44	177929.773
-43	178207.9638
-42	179264.1909
-41	178497.9815
-40	179650.693
-39	178928.7157
-38	181471.0171
-37	184113.8827
-36	186457.8028
-35	188115.0758
-34	189804.4651
-33	194246.0104
-32	197461.4863
-31	200763.3891
-30	208663.6772
-29	214753.8631
-28	219928.3212
-27	223137.1444
-26	219041.8205
-25	213639.3792
-24	205901.0066
-23	194845.9012
-22	192643.4154
-21	193076.2247
-20	196855.734
-19	199710.6733
-18	205743.868
-17	210929.2684
-16	216884.288
-15	221611.5872
-14	221456.2161
-13	228888.645
-12	233529.9118
-11	242650.3389
-10	255550.74
-9	264131.0271
-8	284318.2793
-7	297271.6209
-6	317748.8706
-5	349496.0949
-4	359512.0777
-3	393302.4881
-2	492631.5977
-1	500704.9973
0	1767363.9483
1	500704.9973
2	492631.5977
3	393302.4881
4	359512.0777
5	349496.0949
6	317748.8706
7	297271.6209
8	284318.2793
9	264131.0271
10	255550.74
11	242650.3389
12	233529.9118
13	228888.645
14	221456.2161
15	221611.5872
16	216884.288
17	210929.2684
18	205743.868
19	199710.6733
20	196855.734
21	193076.2247
22	192643.4154
23	194845.9012
24	205901.0066
25	213639.3792
26	219041.8205
27	223137.1444
28	219928.3212
29	214753.8631
30	208663.6772
31	200763.3891
32	197461.4863
33	194246.0104
34	189804.4651
35	188115.0758
36	186457.8028
37	184113.8827
38	181471.0171
39	178928.7157
40	179650.693
41	178497.9815
42	179264.1909
43	178207.9638
44	177929.773
45	178170.2349
46	179551.1226
47	179120.7497
48	178745.1961
49	179855.266
50	182088.211
51	186728.6261
52	188363.8528
53	191495.7336
54	193183.9966
55	193857.534
56	191858.3331
57	190789.2802
58	190413.6079
59	187433.3392
60	187771.2523
61	186228.77
62	184773.769
63	184923.5093
64	184122.663
65	182272.0731
66	182552.6378
67	181499.1658
68	180830.3607
69	181635.9859
70	180537.4178
71	181159.3232
72	179235.7726
73	180457.5468
74	177378.6883
75	180414.7617
76	178751.0331
77	181310.4626
78	181794.3161
79	182863.7552
80	181846.8648
81	183515.5353
82	182924.8795
83	184042.5177
84	184954.8819
85	183568.0912
86	184568.5063
87	183628.6651
88	183034.9862
89	183032.3954
90	181349.4003
91	180930.8088
92	180552.3397
93	180647.8946
94	179730.5511
95	179764.2969
96	180942.3551
97	179956.0299
98	179380.3113
99	179975.3148
100	177703.9174
101	179105.5009
102	177584.024
103	178825.053
104	178848.1785
105	180846.1959
106	180238.5342
107	179994.2852
108	180322.018
109	180861.8341
110	180165.6267
111	180856.4674
112	180904.0504
113	181649.1304
114	181314.0204
115	180542.9296
116	179024.2103
117	181844.488
118	178919.7274
119	179143.11
120	178665.1623
121	177489.6693
122	177711.9153
123	178322.9475
124	177780.4181
125	177788.4927
126	178107.9806
127	177564.7263
128	176931.4242
129	177335.8943
130	176884.7568
131	177495.1476
132	178291.7787
133	177126.6375
134	177084.9926
135	177363.5022
136	176816.6002
137	177856.9458
138	178385.9514
139	179199.112
140	178205.8734
141	179835.2869
142	178376.6132
143	178981.3953
144	181450.2317
145	180518.8611
146	179117.5918
147	179364.7028
148	179303.5077
149	177757.0408
150	177974.0014
151	178267.2566
152	178164.4264
153	179533.6922
154	178423.4119
155	177581.9458
156	178008.975
157	177072.9827
158	177913.0781
159	176884.8201
160	176639.6759
161	177821.5178
162	176519.1577
163	176994.5953
164	178381.1713
165	177451.4563
166	177643.9703
167	177031.4406
168	177521.7197
169	177321.1713
170	178784.235
171	179142.5508
172	178816.6178
173	177981.7767
174	177946.3376
175	177207.8351
176	177517.2293
177	177897.1995
178	176124.9509
179	176289.5109
180	176865.8241
181	176548.2826
182	176046.0739
183	176249.651
184	176037.4995
185	176003.9478
186	176769.2098
187	176003.7432
188	175479.1885
189	175844.9022
190	174926.6787
191	176341.0098
192	175956.7219
193	174919.4145
194	174869.4254
195	175017.8757
196	174415.2962
197	175422.4993
198	175273.5636
199	175480.6352
200	87454.7743
