Position	Value
-200	27564.2988
-199	55217.7539
-198	55199.382
-197	54661.2018
-196	54914.5001
-195	54895.3292
-194	55222.8856
-193	55156.3862
-192	55555.4203
-191	55538.8441
-190	55657.7684
-189	55771.1021
-188	56091.0036
-187	55596.6053
-186	55652.5189
-185	55270.0682
-184	55416.929
-183	55865.9887
-182	55271.4914
-181	55795.416
-180	55271.9728
-179	55575.5034
-178	55547.5062
-177	56044.2064
-176	55665.5427
-175	56000.4594
-174	55799.6191
-173	56088.5703
-172	55889.1301
-171	55715.0797
-170	56000.7923
-169	55970.2112
-168	56123.2193
-167	56481.2489
-166	56000.0021
-165	56641.9936
-164	56557.3812
-163	56376.4779
-162	56558.5721
-161	56248.4816
-160	56558.7387
-159	56269.9839
-158	56835.8987
-157	56320.4502
-156	56678.59
-155	57044.3668
-154	56517.2177
-153	56815.6822
-152	56773.2227
-151	56472.5343
-150	56847.1988
-149	56959.7152
-148	56758.4614
-147	57249.67
-146	56500.8123
-145	56786.4545
-144	57043.3084
-143	56511.3265
-142	56917.1963
-141	57146.5782
-140	57040.6035
-139	57374.7726
-138	56980.4859
-137	56860.5712
-136	57279.6858
-135	57525.2107
-134	57715.9856
-133	57531.44
-132	58103.8105
-131	57342.9968
-130	57453.3632
-129	57327.3483
-128	56880.9494
-127	57547.9188
-126	57309.325
-125	56818.9836
-124	56965.5082
-123	57801.1154
-122	56923.3657
-121	57389.2694
-120	57391.8905
-119	57028.3672
-118	56918.8486
-117	57578.877
-116	57136.1643
-115	57082.8008
-114	56853.7682
-113	57609.6272
-112	57325.5992
-111	57198.4839
-110	57236.6097
-109	57117.783
-108	57192.6298
-107	57508.1819
-106	56636.9082
-105	56628.5725
-104	56542.6612
-103	56338.9708
-102	56231.5092
-101	56481.6483
-100	56788.7771
-99	56723.8549
-98	56470.4385
-97	56499.1068
-96	56778.3558
-95	56644.137
-94	57093.8062
-93	57633.5977
-92	57694.3933
-91	57941.2148
-90	57766.5113
-89	58464.3219
-88	58233.9647
-87	58366.7202
-86	58763.3126
-85	58439.6116
-84	59115.5361
-83	58740.9285
-82	58589.7799
-81	58453.7002
-80	58140.3449
-79	57956.9991
-78	57880.3454
-77	57357.9814
-76	57068.7638
-75	56799.0555
-74	56928.254
-73	56650.3382
-72	57051.4046
-71	56940.1125
-70	57176.0357
-69	57782.8471
-68	57953.3302
-67	58194.6965
-66	58328.8814
-65	58175.2427
-64	58930.2678
-63	59259.8215
-62	59643.6225
-61	59872.8938
-60	60343.0383
-59	60531.3783
-58	60715.7154
-57	61864.3942
-56	62266.4119
-55	62548.458
-54	62072.6692
-53	61433.4345
-52	60469.5558
-51	59108.0883
-50	57843.8808
-49	57120.1548
-48	56988.948
-47	56501.6762
-46	57271.3345
-45	57088.9514
-44	57481.3382
-43	57197.5982
-42	57678.4588
-41	57088.5951
-40	56882.0612
-39	57316.7606
-38	57825.0323
-37	58716.0868
-36	59098.7716
-35	60002.0265
-34	60806.1988
-33	62074.2074
-32	62688.355
-31	64408.3066
-30	65836.8235
-29	67503.9536
-28	70330.6725
-27	72016.6067
-26	70026.7927
-25	66602.1572
-24	61992.597
-23	57608.5037
-22	58822.0149
-21	61464.2921
-20	64399.174
-19	66181.619
-18	68404.2162
-17	69846.8938
-16	71631.6869
-15	73877.4215
-14	74840.7133
-13	77995.2292
-12	81778.2581
-11	84223.6332
-10	88837.4578
-9	90817.7686
-8	96986.0122
-7	101100.7208
-6	105271.5957
-5	115887.3166
-4	122592.1061
-3	140784.6585
-2	170722.8912
-1	187402.7567
0	726999.5672
1	187402.7567
2	170722.8912
3	140784.6585
4	122592.1061
5	115887.3166
6	105271.5957
7	101100.7208
8	96986.0122
9	90817.7686
10	88837.4578
11	84223.6332
12	81778.2581
13	77995.2292
14	74840.7133
15	73877.4215
16	71631.6869
17	69846.8938
18	68404.2162
19	66181.619
20	64399.174
21	61464.2921
22	58822.0149
23	57608.5037
24	61992.597
25	66602.1572
26	70026.7927
27	72016.6067
28	70330.6725
29	67503.9536
30	65836.8235
31	64408.3066
32	62688.355
33	62074.2074
34	60806.1988
35	60002.0265
36	59098.7716
37	58716.0868
38	57825.0323
39	57316.7606
40	56882.0612
41	57088.5951
42	57678.4588
43	57197.5982
44	57481.3382
45	57088.9514
46	57271.3345
47	56501.6762
48	56988.948
49	57120.1548
50	57843.8808
51	59108.0883
52	60469.5558
53	61433.4345
54	62072.6692
55	62548.458
56	62266.4119
57	61864.3942
58	60715.7154
59	60531.3783
60	60343.0383
61	59872.8938
62	59643.6225
63	59259.8215
64	58930.2678
65	58175.2427
66	58328.8814
67	58194.6965
68	57953.3302
69	57782.8471
70	57176.0357
71	56940.1125
72	57051.4046
73	56650.3382
74	56928.254
75	56799.0555
76	57068.7638
77	57357.9814
78	57880.3454
79	57956.9991
80	58140.3449
81	58453.7002
82	58589.7799
83	58740.9285
84	59115.5361
85	58439.6116
86	58763.3126
87	58366.7202
88	58233.9647
89	58464.3219
90	57766.5113
91	57941.2148
92	57694.3933
93	57633.5977
94	57093.8062
95	56644.137
96	56778.3558
97	56499.1068
98	56470.4385
99	56723.8549
100	56788.7771
101	56481.6483
102	56231.5092
103	56338.9708
104	56542.6612
105	56628.5725
106	56636.9082
107	57508.1819
108	57192.6298
109	57117.783
110	57236.6097
111	57198.4839
112	57325.5992
113	57609.6272
114	56853.7682
115	57082.8008
116	57136.1643
117	57578.877
118	56918.8486
119	57028.3672
120	57391.8905
121	57389.2694
122	56923.3657
123	57801.1154
124	56965.5082
125	56818.9836
126	57309.325
127	57547.9188
128	56880.9494
129	57327.3483
130	57453.3632
131	57342.9968
132	58103.8105
133	57531.44
134	57715.9856
135	57525.2107
136	57279.6858
137	56860.5712
138	56980.4859
139	57374.7726
140	57040.6035
141	57146.5782
142	56917.1963
143	56511.3265
144	57043.3084
145	56786.4545
146	56500.8123
147	57249.67
148	56758.4614
149	56959.7152
150	56847.1988
151	56472.5343
152	56773.2227
153	56815.6822
154	56517.2177
155	57044.3668
156	56678.59
157	56320.4502
158	56835.8987
159	56269.9839
160	56558.7387
161	56248.4816
162	56558.5721
163	56376.4779
164	56557.3812
165	56641.9936
166	56000.0021
167	56481.2489
168	56123.2193
169	55970.2112
170	56000.7923
171	55715.0797
172	55889.1301
173	56088.5703
174	55799.6191
175	56000.4594
176	55665.5427
177	56044.2064
178	55547.5062
179	55575.5034
180	55271.9728
181	55795.416
182	55271.4914
183	55865.9887
184	55416.929
185	55270.0682
186	55652.5189
187	55596.6053
188	56091.0036
189	55771.1021
190	55657.7684
191	55538.8441
192	55555.4203
193	55156.3862
194	55222.8856
195	54895.3292
196	54914.5001
197	54661.2018
198	55199.382
199	55217.7539
200	27564.2988
