Position	Value
-200	97389.3103
-199	195495.0674
-198	195817.7233
-197	194641.187
-196	194057.3657
-195	195178.6754
-194	195215.8116
-193	194885.9611
-192	195632.8584
-191	195089.3854
-190	194842.6036
-189	194726.9793
-188	194843.7232
-187	195147.2429
-186	195191.0495
-185	195290.4855
-184	194902.4426
-183	195054.7139
-182	194847.0594
-181	195819.9088
-180	195446.8607
-179	196433.5242
-178	196540.6277
-177	197664.8463
-176	197637.6706
-175	198456.2893
-174	198456.2119
-173	197973.735
-172	197669.5088
-171	198658.1585
-170	199709.0162
-169	198789.1231
-168	199271.526
-167	198573.5525
-166	199414.3402
-165	199265.6978
-164	198565.6552
-163	199024.1436
-162	199438.9323
-161	197650.3686
-160	198226.5728
-159	198307.5877
-158	197838.656
-157	197477.4963
-156	198361.2694
-155	198439.5787
-154	197438.6308
-153	199792.4472
-152	198561.2745
-151	198253.9893
-150	197330.4831
-149	197988.9355
-148	199032.67
-147	199979.6638
-146	199148.7543
-145	199406.3828
-144	199802.5333
-143	199502.5408
-142	198277.2232
-141	198905.9217
-140	197570.8968
-139	198260.2685
-138	198267.2209
-137	198261.4881
-136	197105.8096
-135	197652.9545
-134	198295.6779
-133	198164.5034
-132	200067.5801
-131	199142.8049
-130	199425.6859
-129	199523.2933
-128	199459.2943
-127	198858.9253
-126	198674.9498
-125	198352.7897
-124	199510.0955
-123	198838.2055
-122	198163.2603
-121	198896.2559
-120	200618.7476
-119	199177.1032
-118	199848.8763
-117	202130.4204
-116	200226.1442
-115	201143.7694
-114	202587.7666
-113	201685.9053
-112	201339.1241
-111	200458.1504
-110	201303.4456
-109	200600.1155
-108	200225.384
-107	200434.389
-106	200412.4819
-105	200980.7918
-104	200625.2779
-103	199666.3564
-102	199782.2297
-101	199816.0859
-100	199567.6238
-99	201017.3148
-98	201517.6889
-97	201783.5232
-96	201298.6769
-95	201567.4645
-94	199998.5019
-93	202030.3438
-92	201091.0387
-91	201651.5506
-90	202782.7133
-89	203995.8358
-88	203682.6557
-87	204227.3822
-86	204226.8911
-85	204917.041
-84	205530.4954
-83	204837.0871
-82	204744.4898
-81	204433.7438
-80	203670.4367
-79	202442.2399
-78	202831.049
-77	200684.5171
-76	199828.749
-75	200271.0802
-74	198778.7033
-73	199603.0533
-72	199844.5426
-71	199170.6374
-70	199561.8715
-69	200285.1056
-68	199552.7777
-67	199672.4317
-66	201488.682
-65	202400.5917
-64	203039.9635
-63	204476.0434
-62	204022.4843
-61	205185.4134
-60	207234.131
-59	208242.6704
-58	209534.7167
-57	210898.2295
-56	211813.5156
-55	212008.6344
-54	210745.2067
-53	210040.7558
-52	207345.449
-51	204805.2649
-50	202242.4276
-49	201258.0864
-48	199461.7014
-47	200043.6657
-46	200402.6129
-45	201151.2298
-44	199967.4148
-43	199426.6417
-42	200134.2651
-41	200077.4556
-40	201163.9101
-39	202076.0985
-38	203803.951
-37	204734.9002
-36	209203.3833
-35	208768.5001
-34	210883.5085
-33	214016.5685
-32	218332.7806
-31	220534.0567
-30	228823.6387
-29	235115.6711
-28	240096.5237
-27	242547.7439
-26	236846.1456
-25	233576.4133
-24	226659.5125
-23	219331.1474
-22	217969.1323
-21	220417.08
-20	225556.9751
-19	229410.6901
-18	234761.6915
-17	241176.3504
-16	248635.6878
-15	253784.6443
-14	254128.0418
-13	260813.1067
-12	270071.5062
-11	277715.9721
-10	291508.5804
-9	303076.9585
-8	324380.4784
-7	339845.8375
-6	358892.9845
-5	394624.058
-4	406928.5416
-3	444103.324
-2	549374.6152
-1	563705.1228
0	1830625.6482
1	563705.1228
2	549374.6152
3	444103.324
4	406928.5416
5	394624.058
6	358892.9845
7	339845.8375
8	324380.4784
9	303076.9585
10	291508.5804
11	277715.9721
12	270071.5062
13	260813.1067
14	254128.0418
15	253784.6443
16	248635.6878
17	241176.3504
18	234761.6915
19	229410.6901
20	225556.9751
21	220417.08
22	217969.1323
23	219331.1474
24	226659.5125
25	233576.4133
26	236846.1456
27	242547.7439
28	240096.5237
29	235115.6711
30	228823.6387
31	220534.0567
32	218332.7806
33	214016.5685
34	210883.5085
35	208768.5001
36	209203.3833
37	204734.9002
38	203803.951
39	202076.0985
40	201163.9101
41	200077.4556
42	200134.2651
43	199426.6417
44	199967.4148
45	201151.2298
46	200402.6129
47	200043.6657
48	199461.7014
49	201258.0864
50	202242.4276
51	204805.2649
52	207345.449
53	210040.7558
54	210745.2067
55	212008.6344
56	211813.5156
57	210898.2295
58	209534.7167
59	208242.6704
60	207234.131
61	205185.4134
62	204022.4843
63	204476.0434
64	203039.9635
65	202400.5917
66	201488.682
67	199672.4317
68	199552.7777
69	200285.1056
70	199561.8715
71	199170.6374
72	199844.5426
73	199603.0533
74	198778.7033
75	200271.0802
76	199828.749
77	200684.5171
78	202831.049
79	202442.2399
80	203670.4367
81	204433.7438
82	204744.4898
83	204837.0871
84	205530.4954
85	204917.041
86	204226.8911
87	204227.3822
88	203682.6557
89	203995.8358
90	202782.7133
91	201651.5506
92	201091.0387
93	202030.3438
94	199998.5019
95	201567.4645
96	201298.6769
97	201783.5232
98	201517.6889
99	201017.3148
100	199567.6238
101	199816.0859
102	199782.2297
103	199666.3564
104	200625.2779
105	200980.7918
106	200412.4819
107	200434.389
108	200225.384
109	200600.1155
110	201303.4456
111	200458.1504
112	201339.1241
113	201685.9053
114	202587.7666
115	201143.7694
116	200226.1442
117	202130.4204
118	199848.8763
119	199177.1032
120	200618.7476
121	198896.2559
122	198163.2603
123	198838.2055
124	199510.0955
125	198352.7897
126	198674.9498
127	198858.9253
128	199459.2943
129	199523.2933
130	199425.6859
131	199142.8049
132	200067.5801
133	198164.5034
134	198295.6779
135	197652.9545
136	197105.8096
137	198261.4881
138	198267.2209
139	198260.2685
140	197570.8968
141	198905.9217
142	198277.2232
143	199502.5408
144	199802.5333
145	199406.3828
146	199148.7543
147	199979.6638
148	199032.67
149	197988.9355
150	197330.4831
151	198253.9893
152	198561.2745
153	199792.4472
154	197438.6308
155	198439.5787
156	198361.2694
157	197477.4963
158	197838.656
159	198307.5877
160	198226.5728
161	197650.3686
162	199438.9323
163	199024.1436
164	198565.6552
165	199265.6978
166	199414.3402
167	198573.5525
168	199271.526
169	198789.1231
170	199709.0162
171	198658.1585
172	197669.5088
173	197973.735
174	198456.2119
175	198456.2893
176	197637.6706
177	197664.8463
178	196540.6277
179	196433.5242
180	195446.8607
181	195819.9088
182	194847.0594
183	195054.7139
184	194902.4426
185	195290.4855
186	195191.0495
187	195147.2429
188	194843.7232
189	194726.9793
190	194842.6036
191	195089.3854
192	195632.8584
193	194885.9611
194	195215.8116
195	195178.6754
196	194057.3657
197	194641.187
198	195817.7233
199	195495.0674
200	97389.3103
