Position	Value
-200	22933.5465
-199	46060.5953
-198	46528.7104
-197	46562.1803
-196	46710.6944
-195	46885.2869
-194	46743.6521
-193	46683.8063
-192	47354.3214
-191	46831.547
-190	47245.1146
-189	47559.3823
-188	47805.8066
-187	47406.1178
-186	47851.0397
-185	47548.9044
-184	47542.8131
-183	47965.7212
-182	47777.2692
-181	47440.7389
-180	47664.3023
-179	47470.1576
-178	47586.6491
-177	47857.2171
-176	47385.478
-175	48017.919
-174	48089.9364
-173	48042.269
-172	47669.5631
-171	47714.6407
-170	47891.0973
-169	48034.5289
-168	47970.9414
-167	48015.8606
-166	47902.7693
-165	47973.8048
-164	48405.9562
-163	47991.1628
-162	48331.8016
-161	48646.8435
-160	48761.8399
-159	48671.5258
-158	48555.9938
-157	48421.6208
-156	48585.8685
-155	48567.4244
-154	48138.9686
-153	47779.1658
-152	47500.7477
-151	47473.6487
-150	47156.3696
-149	47400.1475
-148	47524.4858
-147	47389.4457
-146	47396.4013
-145	47668.9345
-144	47895.7933
-143	47881.0619
-142	47628.617
-141	47927.3748
-140	47844.8712
-139	47897.5701
-138	47958.9959
-137	47591.9803
-136	47481.6078
-135	47948.6139
-134	47890.4755
-133	48302.4743
-132	48664.3421
-131	48601.7839
-130	48690.0963
-129	48563.3629
-128	48208.0797
-127	48271.3245
-126	48126.4676
-125	47831.6301
-124	48206.6255
-123	48613.5823
-122	48176.7151
-121	48174.9237
-120	48015.3913
-119	48239.9959
-118	48151.1872
-117	48573.4021
-116	48289.0434
-115	49055.9046
-114	48650.6692
-113	49000.3582
-112	48732.0637
-111	48506.2588
-110	48406.5491
-109	48395.4015
-108	48263.5528
-107	48256.7194
-106	47870.5833
-105	47576.917
-104	47510.4855
-103	47215.313
-102	47063.1077
-101	47293.383
-100	47446.5915
-99	48209.7858
-98	47669.2881
-97	47879.4245
-96	47566.1317
-95	47721.1629
-94	47891.9275
-93	48045.3782
-92	48184.0425
-91	48519.047
-90	48793.7177
-89	49518.8979
-88	49477.2381
-87	49793.232
-86	49769.2741
-85	49852.8877
-84	49812.2994
-83	49683.9663
-82	49428.6496
-81	49856.7068
-80	49673.9632
-79	49463.8578
-78	49001.7849
-77	49215.2491
-76	47668.8037
-75	47954.0943
-74	47435.2108
-73	47114.5132
-72	47525.6436
-71	47568.721
-70	47516.6035
-69	48054.7976
-68	48068.3181
-67	48787.3363
-66	49343.7046
-65	49276.8577
-64	49964.8509
-63	49849.4854
-62	50726.5093
-61	50667.515
-60	51801.7354
-59	51872.7833
-58	52455.3493
-57	53209.751
-56	53438.6879
-55	53634.1104
-54	53201.347
-53	52961.0295
-52	51879.1001
-51	50860.6157
-50	49562.7155
-49	48550.5226
-48	48595.8479
-47	47972.5324
-46	48543.9989
-45	48366.8127
-44	48305.4723
-43	47970.9007
-42	48210.1359
-41	47225.874
-40	47981.8809
-39	47902.3388
-38	48754.8138
-37	49199.461
-36	49965.6097
-35	50269.6644
-34	51175.6403
-33	52535.909
-32	53428.7223
-31	55038.8291
-30	56304.2426
-29	58059.0602
-28	60177.5808
-27	60613.7693
-26	58571.6041
-25	56075.1409
-24	52601.059
-23	50027.9223
-22	51203.7563
-21	53845.938
-20	56477.0462
-19	58467.1963
-18	60869.5388
-17	62265.176
-16	64706.9426
-15	67063.6279
-14	69127.3372
-13	72307.7916
-12	76236.7773
-11	79356.1715
-10	83468.0115
-9	86763.5166
-8	91678.0489
-7	97525.6721
-6	104281.5302
-5	112709.8352
-4	121150.4771
-3	138536.9505
-2	171230.455
-1	178003.7208
0	682012.8197
1	178003.7208
2	171230.455
3	138536.9505
4	121150.4771
5	112709.8352
6	104281.5302
7	97525.6721
8	91678.0489
9	86763.5166
10	83468.0115
11	79356.1715
12	76236.7773
13	72307.7916
14	69127.3372
15	67063.6279
16	64706.9426
17	62265.176
18	60869.5388
19	58467.1963
20	56477.0462
21	53845.938
22	51203.7563
23	50027.9223
24	52601.059
25	56075.1409
26	58571.6041
27	60613.7693
28	60177.5808
29	58059.0602
30	56304.2426
31	55038.8291
32	53428.7223
33	52535.909
34	51175.6403
35	50269.6644
36	49965.6097
37	49199.461
38	48754.8138
39	47902.3388
40	47981.8809
41	47225.874
42	48210.1359
43	47970.9007
44	48305.4723
45	48366.8127
46	48543.9989
47	47972.5324
48	48595.8479
49	48550.5226
50	49562.7155
51	50860.6157
52	51879.1001
53	52961.0295
54	53201.347
55	53634.1104
56	53438.6879
57	53209.751
58	52455.3493
59	51872.7833
60	51801.7354
61	50667.515
62	50726.5093
63	49849.4854
64	49964.8509
65	49276.8577
66	49343.7046
67	48787.3363
68	48068.3181
69	48054.7976
70	47516.6035
71	47568.721
72	47525.6436
73	47114.5132
74	47435.2108
75	47954.0943
76	47668.8037
77	49215.2491
78	49001.7849
79	49463.8578
80	49673.9632
81	49856.7068
82	49428.6496
83	49683.9663
84	49812.2994
85	49852.8877
86	49769.2741
87	49793.232
88	49477.2381
89	49518.8979
90	48793.7177
91	48519.047
92	48184.0425
93	48045.3782
94	47891.9275
95	47721.1629
96	47566.1317
97	47879.4245
98	47669.2881
99	48209.7858
100	47446.5915
101	47293.383
102	47063.1077
103	47215.313
104	47510.4855
105	47576.917
106	47870.5833
107	48256.7194
108	48263.5528
109	48395.4015
110	48406.5491
111	48506.2588
112	48732.0637
113	49000.3582
114	48650.6692
115	49055.9046
116	48289.0434
117	48573.4021
118	48151.1872
119	48239.9959
120	48015.3913
121	48174.9237
122	48176.7151
123	48613.5823
124	48206.6255
125	47831.6301
126	48126.4676
127	48271.3245
128	48208.0797
129	48563.3629
130	48690.0963
131	48601.7839
132	48664.3421
133	48302.4743
134	47890.4755
135	47948.6139
136	47481.6078
137	47591.9803
138	47958.9959
139	47897.5701
140	47844.8712
141	47927.3748
142	47628.617
143	47881.0619
144	47895.7933
145	47668.9345
146	47396.4013
147	47389.4457
148	47524.4858
149	47400.1475
150	47156.3696
151	47473.6487
152	47500.7477
153	47779.1658
154	48138.9686
155	48567.4244
156	48585.8685
157	48421.6208
158	48555.9938
159	48671.5258
160	48761.8399
161	48646.8435
162	48331.8016
163	47991.1628
164	48405.9562
165	47973.8048
166	47902.7693
167	48015.8606
168	47970.9414
169	48034.5289
170	47891.0973
171	47714.6407
172	47669.5631
173	48042.269
174	48089.9364
175	48017.919
176	47385.478
177	47857.2171
178	47586.6491
179	47470.1576
180	47664.3023
181	47440.7389
182	47777.2692
183	47965.7212
184	47542.8131
185	47548.9044
186	47851.0397
187	47406.1178
188	47805.8066
189	47559.3823
190	47245.1146
191	46831.547
192	47354.3214
193	46683.8063
194	46743.6521
195	46885.2869
196	46710.6944
197	46562.1803
198	46528.7104
199	46060.5953
200	22933.5465
