Position	Value
-200	4025.5759
-199	8015.8658
-198	7907.0174
-197	7854.8216
-196	8018.7676
-195	8000.9246
-194	8021.2617
-193	7985.922
-192	8055.4004
-191	8053.8267
-190	8089.5029
-189	8050.4616
-188	8009.2351
-187	8001.5273
-186	7912.4795
-185	7934.6739
-184	7976.8
-183	7784.9931
-182	7858.1783
-181	7677.9929
-180	7719.9359
-179	7885.5205
-178	7883.4828
-177	8009.0847
-176	7990.1507
-175	8052.7218
-174	8077.6841
-173	7963.5199
-172	8006.0237
-171	8210.1732
-170	8153.9396
-169	8041.6018
-168	8001.6648
-167	8070.8083
-166	8234.9648
-165	8181.1422
-164	8080.5156
-163	8198.6508
-162	8253.5883
-161	8185.2056
-160	8226.9816
-159	8209.9522
-158	8180.1306
-157	8337.4344
-156	8229.3699
-155	8312.4913
-154	8366.1439
-153	8379.2261
-152	8421.1638
-151	8325.0483
-150	8452.1102
-149	8451.281
-148	8484.6191
-147	8619.57
-146	8575.4242
-145	8600.9888
-144	8636.6377
-143	8594.3389
-142	8463.6244
-141	8433.94
-140	8397.5941
-139	8318.3113
-138	8449.6397
-137	8299.534
-136	8366.2502
-135	8489.9513
-134	8431.0211
-133	8311.8067
-132	8441.7644
-131	8440.4046
-130	8477.2286
-129	8442.3275
-128	8379.8856
-127	8297.9589
-126	8342.1265
-125	8206.4201
-124	8268.138
-123	8461.352
-122	8540.7944
-121	8451.6996
-120	8367.9733
-119	8410.0378
-118	8330.7337
-117	8465.7307
-116	8391.8789
-115	8504.424
-114	8426.3605
-113	8481.0805
-112	8474.4451
-111	8365.7181
-110	8409.8961
-109	8458.6917
-108	8461.9465
-107	8557.3433
-106	8541.4118
-105	8630.3468
-104	8482.0003
-103	8512.3272
-102	8582.1375
-101	8558.265
-100	8577.4217
-99	8620.0483
-98	8697.7947
-97	8768.7315
-96	8848.8386
-95	8631.7945
-94	8640.0801
-93	8722.033
-92	8761.1582
-91	8733.7772
-90	8821.3489
-89	8855.7258
-88	8993.0905
-87	8858.6923
-86	8952.7303
-85	9045.8061
-84	8965.0506
-83	8827.0962
-82	8866.7077
-81	8871.8538
-80	8764.4844
-79	8677.0435
-78	8668.262
-77	8646.9582
-76	8662.1544
-75	8902.049
-74	8702.356
-73	8848.4331
-72	9024.1067
-71	8968.5472
-70	9160.5009
-69	9102.5509
-68	9084.1867
-67	9103.0947
-66	8938.1333
-65	8948.4312
-64	8952.0051
-63	9019.6864
-62	9127.0095
-61	9113.5924
-60	9280.0562
-59	9264.1702
-58	9283.4078
-57	9223.3412
-56	9156.2155
-55	9208.4344
-54	9288.6631
-53	9299.6215
-52	9292.3406
-51	9255.6921
-50	9136.8677
-49	9085.3219
-48	9192.3389
-47	9214.0081
-46	9122.8664
-45	9287.4583
-44	9309.8938
-43	9033.5754
-42	9224.6483
-41	9195.0735
-40	9264.4796
-39	9261.1267
-38	9247.072
-37	9194.876
-36	9274.7678
-35	9398.041
-34	9499.9163
-33	9593.6434
-32	9940.3061
-31	9985.1882
-30	10210.7597
-29	9995.1343
-28	10023.3384
-27	9868.5293
-26	10045.3859
-25	9985.3462
-24	9595.5789
-23	9130.2792
-22	8921.4826
-21	8952.0728
-20	9229.5709
-19	9497.144
-18	10024.4979
-17	10531.8067
-16	11108.2606
-15	11694.0594
-14	12232.2445
-13	12640.7824
-12	13145.45
-11	13358.6108
-10	13570.1743
-9	13898.0226
-8	14465.9396
-7	15540.3366
-6	16863.948
-5	19786.7438
-4	23505.9237
-3	30704.0941
-2	44368.2486
-1	56717.1722
0	232248.4162
1	56717.1722
2	44368.2486
3	30704.0941
4	23505.9237
5	19786.7438
6	16863.948
7	15540.3366
8	14465.9396
9	13898.0226
10	13570.1743
11	13358.6108
12	13145.45
13	12640.7824
14	12232.2445
15	11694.0594
16	11108.2606
17	10531.8067
18	10024.4979
19	9497.144
20	9229.5709
21	8952.0728
22	8921.4826
23	9130.2792
24	9595.5789
25	9985.3462
26	10045.3859
27	9868.5293
28	10023.3384
29	9995.1343
30	10210.7597
31	9985.1882
32	9940.3061
33	9593.6434
34	9499.9163
35	9398.041
36	9274.7678
37	9194.876
38	9247.072
39	9261.1267
40	9264.4796
41	9195.0735
42	9224.6483
43	9033.5754
44	9309.8938
45	9287.4583
46	9122.8664
47	9214.0081
48	9192.3389
49	9085.3219
50	9136.8677
51	9255.6921
52	9292.3406
53	9299.6215
54	9288.6631
55	9208.4344
56	9156.2155
57	9223.3412
58	9283.4078
59	9264.1702
60	9280.0562
61	9113.5924
62	9127.0095
63	9019.6864
64	8952.0051
65	8948.4312
66	8938.1333
67	9103.0947
68	9084.1867
69	9102.5509
70	9160.5009
71	8968.5472
72	9024.1067
73	8848.4331
74	8702.356
75	8902.049
76	8662.1544
77	8646.9582
78	8668.262
79	8677.0435
80	8764.4844
81	8871.8538
82	8866.7077
83	8827.0962
84	8965.0506
85	9045.8061
86	8952.7303
87	8858.6923
88	8993.0905
89	8855.7258
90	8821.3489
91	8733.7772
92	8761.1582
93	8722.033
94	8640.0801
95	8631.7945
96	8848.8386
97	8768.7315
98	8697.7947
99	8620.0483
100	8577.4217
101	8558.265
102	8582.1375
103	8512.3272
104	8482.0003
105	8630.3468
106	8541.4118
107	8557.3433
108	8461.9465
109	8458.6917
110	8409.8961
111	8365.7181
112	8474.4451
113	8481.0805
114	8426.3605
115	8504.424
116	8391.8789
117	8465.7307
118	8330.7337
119	8410.0378
120	8367.9733
121	8451.6996
122	8540.7944
123	8461.352
124	8268.138
125	8206.4201
126	8342.1265
127	8297.9589
128	8379.8856
129	8442.3275
130	8477.2286
131	8440.4046
132	8441.7644
133	8311.8067
134	8431.0211
135	8489.9513
136	8366.2502
137	8299.534
138	8449.6397
139	8318.3113
140	8397.5941
141	8433.94
142	8463.6244
143	8594.3389
144	8636.6377
145	8600.9888
146	8575.4242
147	8619.57
148	8484.6191
149	8451.281
150	8452.1102
151	8325.0483
152	8421.1638
153	8379.2261
154	8366.1439
155	8312.4913
156	8229.3699
157	8337.4344
158	8180.1306
159	8209.9522
160	8226.9816
161	8185.2056
162	8253.5883
163	8198.6508
164	8080.5156
165	8181.1422
166	8234.9648
167	8070.8083
168	8001.6648
169	8041.6018
170	8153.9396
171	8210.1732
172	8006.0237
173	7963.5199
174	8077.6841
175	8052.7218
176	7990.1507
177	8009.0847
178	7883.4828
179	7885.5205
180	7719.9359
181	7677.9929
182	7858.1783
183	7784.9931
184	7976.8
185	7934.6739
186	7912.4795
187	8001.5273
188	8009.2351
189	8050.4616
190	8089.5029
191	8053.8267
192	8055.4004
193	7985.922
194	8021.2617
195	8000.9246
196	8018.7676
197	7854.8216
198	7907.0174
199	8015.8658
200	4025.5759
