Position	Value
-200	3637.67
-199	3693.2
-198	3674.8
-197	3647.4
-196	3558.72
-195	3565.44
-194	3602.74
-193	3569.3
-192	3535.29
-191	3706.68
-190	3520.74
-189	3602.27
-188	3650.67
-187	3562.84
-186	3809.91
-185	3569.02
-184	3592.89
-183	3599.91
-182	3524.93
-181	3566.33
-180	3466.15
-179	3653.92
-178	3513.61
-177	3570.29
-176	3630.8
-175	3587.3
-174	3724.62
-173	3547.17
-172	3563.93
-171	3599.97
-170	3652.75
-169	3620.78
-168	3611.67
-167	3541.11
-166	3564.99
-165	3688.9
-164	3666.07
-163	3695.23
-162	3654.6
-161	3722.3
-160	3782.16
-159	3827.42
-158	3887.08
-157	3706.34
-156	3811.32
-155	3778.34
-154	3619.46
-153	3689.02
-152	3716.28
-151	3744.31
-150	3690.16
-149	3676.08
-148	3772.48
-147	3893.95
-146	3774.49
-145	3679.14
-144	3726.51
-143	3695.66
-142	3682.86
-141	3594.91
-140	3652.08
-139	3780.85
-138	3671.31
-137	3635.91
-136	3579.84
-135	3773.65
-134	3678.24
-133	3726.55
-132	3586.06
-131	3722.31
-130	3697.96
-129	3577.97
-128	3717.17
-127	3601.4
-126	3665.44
-125	3641.2
-124	3675.67
-123	3712.97
-122	3757.1
-121	3723.53
-120	3757.93
-119	3788.71
-118	3641.28
-117	3772.05
-116	3719.36
-115	3713.52
-114	3721.43
-113	3706.64
-112	3695.73
-111	3685.78
-110	3790.45
-109	3801.93
-108	3776.81
-107	3770.78
-106	3756.53
-105	3892.7
-104	3694.14
-103	3764.4
-102	3865.03
-101	3747.65
-100	3682.32
-99	3700.49
-98	3696.61
-97	3882.06
-96	3734.84
-95	3811.56
-94	3756.31
-93	3819.66
-92	3807.8
-91	3791.09
-90	3800.06
-89	3906.87
-88	3959.08
-87	3885.21
-86	3906.31
-85	3832.61
-84	3809.69
-83	3857.31
-82	3920.19
-81	3945.3
-80	3737.32
-79	3783.36
-78	3690.21
-77	3853.07
-76	3672.16
-75	3650.08
-74	3694.2
-73	3563.82
-72	3822.88
-71	3564.33
-70	3741.23
-69	3775.16
-68	3704.89
-67	3844.91
-66	3887.18
-65	3769.73
-64	3879.78
-63	3936.41
-62	3938.52
-61	3923.82
-60	3961.87
-59	4131.54
-58	3988.8
-57	4112.01
-56	4178.71
-55	4146.61
-54	4178.81
-53	4149.8
-52	4067.83
-51	3966.3
-50	3670.39
-49	3649.39
-48	3436.12
-47	3697.57
-46	3599.32
-45	3534.69
-44	3556.69
-43	3562.72
-42	3639.1
-41	3586.06
-40	3724.42
-39	3725.42
-38	3732.13
-37	3797.93
-36	3890.31
-35	3887.99
-34	3981.59
-33	4326.71
-32	4427.87
-31	4499.7
-30	4943.08
-29	5071.24
-28	5218.3
-27	5339.58
-26	5114.42
-25	4692.09
-24	4283.8
-23	3671.79
-22	3593.12
-21	3733.13
-20	3823.54
-19	3813.08
-18	3977.95
-17	3988.44
-16	4093.14
-15	4247.6
-14	4251.12
-13	4586.77
-12	4663.81
-11	4863.83
-10	4941.01
-9	5100.53
-8	5693.29
-7	5916.62
-6	6225.07
-5	7143.52
-4	7545.65
-3	8482.21
-2	10497.9
-1	10363.6
0	98509.1
1	10363.6
2	10497.9
3	8482.21
4	7545.65
5	7143.52
6	6225.07
7	5916.62
8	5693.29
9	5100.53
10	4941.01
11	4863.83
12	4663.81
13	4586.77
14	4251.12
15	4247.6
16	4093.14
17	3988.44
18	3977.95
19	3813.08
20	3823.54
21	3733.13
22	3593.12
23	3671.79
24	4283.8
25	4692.09
26	5114.42
27	5339.58
28	5218.3
29	5071.24
30	4943.08
31	4499.7
32	4427.87
33	4326.71
34	3981.59
35	3887.99
36	3890.31
37	3797.93
38	3732.13
39	3725.42
40	3724.42
41	3586.06
42	3639.1
43	3562.72
44	3556.69
45	3534.69
46	3599.32
47	3697.57
48	3436.12
49	3649.39
50	3670.39
51	3966.3
52	4067.83
53	4149.8
54	4178.81
55	4146.61
56	4178.71
57	4112.01
58	3988.8
59	4131.54
60	3961.87
61	3923.82
62	3938.52
63	3936.41
64	3879.78
65	3769.73
66	3887.18
67	3844.91
68	3704.89
69	3775.16
70	3741.23
71	3564.33
72	3822.88
73	3563.82
74	3694.2
75	3650.08
76	3672.16
77	3853.07
78	3690.21
79	3783.36
80	3737.32
81	3945.3
82	3920.19
83	3857.31
84	3809.69
85	3832.61
86	3906.31
87	3885.21
88	3959.08
89	3906.87
90	3800.06
91	3791.09
92	3807.8
93	3819.66
94	3756.31
95	3811.56
96	3734.84
97	3882.06
98	3696.61
99	3700.49
100	3682.32
101	3747.65
102	3865.03
103	3764.4
104	3694.14
105	3892.7
106	3756.53
107	3770.78
108	3776.81
109	3801.93
110	3790.45
111	3685.78
112	3695.73
113	3706.64
114	3721.43
115	3713.52
116	3719.36
117	3772.05
118	3641.28
119	3788.71
120	3757.93
121	3723.53
122	3757.1
123	3712.97
124	3675.67
125	3641.2
126	3665.44
127	3601.4
128	3717.17
129	3577.97
130	3697.96
131	3722.31
132	3586.06
133	3726.55
134	3678.24
135	3773.65
136	3579.84
137	3635.91
138	3671.31
139	3780.85
140	3652.08
141	3594.91
142	3682.86
143	3695.66
144	3726.51
145	3679.14
146	3774.49
147	3893.95
148	3772.48
149	3676.08
150	3690.16
151	3744.31
152	3716.28
153	3689.02
154	3619.46
155	3778.34
156	3811.32
157	3706.34
158	3887.08
159	3827.42
160	3782.16
161	3722.3
162	3654.6
163	3695.23
164	3666.07
165	3688.9
166	3564.99
167	3541.11
168	3611.67
169	3620.78
170	3652.75
171	3599.97
172	3563.93
173	3547.17
174	3724.62
175	3587.3
176	3630.8
177	3570.29
178	3513.61
179	3653.92
180	3466.15
181	3566.33
182	3524.93
183	3599.91
184	3592.89
185	3569.02
186	3809.91
187	3562.84
188	3650.67
189	3602.27
190	3520.74
191	3706.68
192	3535.29
193	3569.3
194	3602.74
195	3565.44
196	3558.72
197	3647.4
198	3674.8
199	3693.2
200	3637.67
