Position	Value
-200	21.4486
-199	42.5881
-198	41.5836
-197	45.703
-196	42.3677
-195	46.7177
-194	43.2013
-193	40.7392
-192	43.6816
-191	46.4013
-190	46.8876
-189	46.9313
-188	53.0886
-187	50.873
-186	43.6764
-185	44.6814
-184	49.2202
-183	42.7868
-182	40.8313
-181	47.198
-180	47.4904
-179	41.6383
-178	40.5032
-177	41.6958
-176	41.1165
-175	43.0281
-174	44.1351
-173	43.307
-172	44.2929
-171	47.6158
-170	47.7138
-169	45.2844
-168	52.4724
-167	54.6924
-166	50.4009
-165	49.3273
-164	44.6527
-163	46.0233
-162	43.8295
-161	42.6463
-160	45.2338
-159	45.9608
-158	51.5049
-157	52.766
-156	45.8683
-155	51.1648
-154	51.8452
-153	46.8332
-152	45.469
-151	41.0408
-150	49.8037
-149	51.3697
-148	50.7378
-147	48.8939
-146	52.7677
-145	49.6672
-144	47.5754
-143	54.2022
-142	48.0397
-141	44.7731
-140	46.183
-139	42.6863
-138	40.9044
-137	37.6704
-136	37.5396
-135	45.1401
-134	46.4439
-133	45.5444
-132	45.7319
-131	49.7889
-130	54.8862
-129	44.6544
-128	48.3502
-127	50.4133
-126	52.7148
-125	52.2492
-124	58.2598
-123	50.7877
-122	55.9937
-121	54.1439
-120	56.5561
-119	53.4523
-118	51.0054
-117	51.3734
-116	54.9167
-115	54.1183
-114	51.9601
-113	43.3457
-112	48.7219
-111	53.6607
-110	47.4469
-109	45.5473
-108	43.8059
-107	52.0995
-106	48.5424
-105	52.7301
-104	55.1956
-103	50.6056
-102	50.4807
-101	48.5862
-100	48.3119
-99	48.9112
-98	47.3568
-97	46.0509
-96	53.0499
-95	48.4281
-94	46.1405
-93	40.9347
-92	48.0618
-91	42.217
-90	44.4066
-89	52.2336
-88	47.2258
-87	44.4066
-86	50.2804
-85	51.599
-84	51.4841
-83	46.4369
-82	50.7625
-81	50.6013
-80	53.0949
-79	52.612
-78	53.7772
-77	49.6788
-76	45.5071
-75	51.1775
-74	54.7569
-73	50.4599
-72	49.2403
-71	52.5163
-70	48.002
-69	47.0927
-68	45.4471
-67	48.5715
-66	50.128
-65	47.3944
-64	49.0543
-63	59.1155
-62	49.9452
-61	49.3229
-60	57.7945
-59	53.2881
-58	50.8212
-57	48.3184
-56	50.2249
-55	47.0577
-54	48.7736
-53	54.4856
-52	49.4012
-51	54.9068
-50	51.4911
-49	47.7722
-48	50.4697
-47	50.302
-46	55.1349
-45	63.6264
-44	64.9952
-43	64.8426
-42	56.9329
-41	56.1525
-40	52.3943
-39	51.449
-38	56.674
-37	67.1767
-36	57.9341
-35	59.211
-34	62.6779
-33	59.6493
-32	70.1793
-31	62.0331
-30	64.4963
-29	60.4243
-28	60.3697
-27	62.9124
-26	60.3424
-25	71.9274
-24	74.1071
-23	78.0653
-22	80.1447
-21	89.8429
-20	82.4432
-19	74.9555
-18	88.2634
-17	76.2643
-16	100.3357
-15	110.3268
-14	125.0201
-13	131.019
-12	128.4952
-11	127.9664
-10	137.9449
-9	125.0064
-8	136.763
-7	152.3303
-6	158.003
-5	213.1512
-4	287.6484
-3	393.2117
-2	543.6439
-1	721.1092
0	8469.2917
1	721.1092
2	543.6439
3	393.2117
4	287.6484
5	213.1512
6	158.003
7	152.3303
8	136.763
9	125.0064
10	137.9449
11	127.9664
12	128.4952
13	131.019
14	125.0201
15	110.3268
16	100.3357
17	76.2643
18	88.2634
19	74.9555
20	82.4432
21	89.8429
22	80.1447
23	78.0653
24	74.1071
25	71.9274
26	60.3424
27	62.9124
28	60.3697
29	60.4243
30	64.4963
31	62.0331
32	70.1793
33	59.6493
34	62.6779
35	59.211
36	57.9341
37	67.1767
38	56.674
39	51.449
40	52.3943
41	56.1525
42	56.9329
43	64.8426
44	64.9952
45	63.6264
46	55.1349
47	50.302
48	50.4697
49	47.7722
50	51.4911
51	54.9068
52	49.4012
53	54.4856
54	48.7736
55	47.0577
56	50.2249
57	48.3184
58	50.8212
59	53.2881
60	57.7945
61	49.3229
62	49.9452
63	59.1155
64	49.0543
65	47.3944
66	50.128
67	48.5715
68	45.4471
69	47.0927
70	48.002
71	52.5163
72	49.2403
73	50.4599
74	54.7569
75	51.1775
76	45.5071
77	49.6788
78	53.7772
79	52.612
80	53.0949
81	50.6013
82	50.7625
83	46.4369
84	51.4841
85	51.599
86	50.2804
87	44.4066
88	47.2258
89	52.2336
90	44.4066
91	42.217
92	48.0618
93	40.9347
94	46.1405
95	48.4281
96	53.0499
97	46.0509
98	47.3568
99	48.9112
100	48.3119
101	48.5862
102	50.4807
103	50.6056
104	55.1956
105	52.7301
106	48.5424
107	52.0995
108	43.8059
109	45.5473
110	47.4469
111	53.6607
112	48.7219
113	43.3457
114	51.9601
115	54.1183
116	54.9167
117	51.3734
118	51.0054
119	53.4523
120	56.5561
121	54.1439
122	55.9937
123	50.7877
124	58.2598
125	52.2492
126	52.7148
127	50.4133
128	48.3502
129	44.6544
130	54.8862
131	49.7889
132	45.7319
133	45.5444
134	46.4439
135	45.1401
136	37.5396
137	37.6704
138	40.9044
139	42.6863
140	46.183
141	44.7731
142	48.0397
143	54.2022
144	47.5754
145	49.6672
146	52.7677
147	48.8939
148	50.7378
149	51.3697
150	49.8037
151	41.0408
152	45.469
153	46.8332
154	51.8452
155	51.1648
156	45.8683
157	52.766
158	51.5049
159	45.9608
160	45.2338
161	42.6463
162	43.8295
163	46.0233
164	44.6527
165	49.3273
166	50.4009
167	54.6924
168	52.4724
169	45.2844
170	47.7138
171	47.6158
172	44.2929
173	43.307
174	44.1351
175	43.0281
176	41.1165
177	41.6958
178	40.5032
179	41.6383
180	47.4904
181	47.198
182	40.8313
183	42.7868
184	49.2202
185	44.6814
186	43.6764
187	50.873
188	53.0886
189	46.9313
190	46.8876
191	46.4013
192	43.6816
193	40.7392
194	43.2013
195	46.7177
196	42.3677
197	45.703
198	41.5836
199	42.5881
200	21.4486
