Position	Value
-200	46.8653
-199	103.6183
-198	92.9612
-197	111.0141
-196	103.1129
-195	91.4134
-194	90.0787
-193	82.909
-192	90.4194
-191	111.5156
-190	87.173
-189	86.7503
-188	97.3362
-187	116.7685
-186	105.5403
-185	87.598
-184	79.4667
-183	107.9831
-182	78.9645
-181	83.8779
-180	88.1051
-179	101.6201
-178	99.5522
-177	102.6208
-176	111.864
-175	103.0102
-174	102.1706
-173	97.2374
-172	90.67
-171	89.7744
-170	74.5746
-169	92.8777
-168	88.7341
-167	100.0203
-166	101.8916
-165	128.5203
-164	104.2814
-163	90.4014
-162	100.1303
-161	74.4551
-160	75.9299
-159	101.0484
-158	83.0475
-157	89.1569
-156	91.1004
-155	117.2852
-154	93.326
-153	105.1961
-152	87.4235
-151	90.8173
-150	89.3956
-149	105.4904
-148	96.4512
-147	110.8951
-146	106.0344
-145	111.6384
-144	91.5891
-143	115.8153
-142	97.6747
-141	112.9857
-140	87.5127
-139	89.0798
-138	103.3811
-137	96.5267
-136	100.3417
-135	108.2889
-134	92.6629
-133	101.1226
-132	153.7085
-131	105.8342
-130	109.7109
-129	80.9693
-128	89.7202
-127	84.8445
-126	87.488
-125	91.9754
-124	77.0846
-123	109.2253
-122	104.6299
-121	132.9809
-120	101.7741
-119	83.9023
-118	80.7025
-117	88.0276
-116	79.441
-115	79.7746
-114	94.3979
-113	104.5975
-112	112.4394
-111	121.4148
-110	122.2475
-109	116.2581
-108	104.7124
-107	82.5512
-106	100.389
-105	132.1815
-104	107.4218
-103	98.4373
-102	106.6789
-101	106.9051
-100	113.8783
-99	115.7197
-98	124.3463
-97	103.6795
-96	101.5363
-95	83.6912
-94	114.1641
-93	92.577
-92	96.1011
-91	92.1762
-90	90.8048
-89	112.1299
-88	129.4973
-87	121.1728
-86	109.1987
-85	90.7325
-84	89.7856
-83	113.2331
-82	91.3484
-81	100.0353
-80	88.9716
-79	102.0275
-78	137.9942
-77	132.3661
-76	118.1218
-75	99.5863
-74	100.86
-73	98.2248
-72	105.3325
-71	94.2011
-70	118.216
-69	115.5169
-68	113.113
-67	125.3376
-66	121.5725
-65	113.3949
-64	101.4067
-63	115.8976
-62	116.5708
-61	98.7324
-60	114.8785
-59	112.5831
-58	113.7795
-57	104.0827
-56	122.1634
-55	144.9755
-54	149.3397
-53	134.6858
-52	102.6551
-51	108.4449
-50	106.6784
-49	111.1794
-48	124.7266
-47	97.1553
-46	146.4461
-45	167.3781
-44	159.6068
-43	163.4047
-42	130.9371
-41	107.8052
-40	103.4499
-39	108.4728
-38	125.5418
-37	131.007
-36	136.7828
-35	121.7793
-34	158.0515
-33	159.9505
-32	155.6611
-31	137.7143
-30	117.4992
-29	116.3281
-28	136.7027
-27	158.1831
-26	133.1205
-25	138.6344
-24	160.6873
-23	142.6832
-22	157.1852
-21	141.8482
-20	129.283
-19	119.7746
-18	101.5599
-17	124.128
-16	127.2783
-15	114.8131
-14	127.0389
-13	164.6384
-12	209.4787
-11	256.9233
-10	255.888
-9	233.3894
-8	207.9429
-7	197.6793
-6	247.1176
-5	236.1178
-4	262.5281
-3	336.4175
-2	501.3716
-1	584.0563
0	12921.4827
1	584.0563
2	501.3716
3	336.4175
4	262.5281
5	236.1178
6	247.1176
7	197.6793
8	207.9429
9	233.3894
10	255.888
11	256.9233
12	209.4787
13	164.6384
14	127.0389
15	114.8131
16	127.2783
17	124.128
18	101.5599
19	119.7746
20	129.283
21	141.8482
22	157.1852
23	142.6832
24	160.6873
25	138.6344
26	133.1205
27	158.1831
28	136.7027
29	116.3281
30	117.4992
31	137.7143
32	155.6611
33	159.9505
34	158.0515
35	121.7793
36	136.7828
37	131.007
38	125.5418
39	108.4728
40	103.4499
41	107.8052
42	130.9371
43	163.4047
44	159.6068
45	167.3781
46	146.4461
47	97.1553
48	124.7266
49	111.1794
50	106.6784
51	108.4449
52	102.6551
53	134.6858
54	149.3397
55	144.9755
56	122.1634
57	104.0827
58	113.7795
59	112.5831
60	114.8785
61	98.7324
62	116.5708
63	115.8976
64	101.4067
65	113.3949
66	121.5725
67	125.3376
68	113.113
69	115.5169
70	118.216
71	94.2011
72	105.3325
73	98.2248
74	100.86
75	99.5863
76	118.1218
77	132.3661
78	137.9942
79	102.0275
80	88.9716
81	100.0353
82	91.3484
83	113.2331
84	89.7856
85	90.7325
86	109.1987
87	121.1728
88	129.4973
89	112.1299
90	90.8048
91	92.1762
92	96.1011
93	92.577
94	114.1641
95	83.6912
96	101.5363
97	103.6795
98	124.3463
99	115.7197
100	113.8783
101	106.9051
102	106.6789
103	98.4373
104	107.4218
105	132.1815
106	100.389
107	82.5512
108	104.7124
109	116.2581
110	122.2475
111	121.4148
112	112.4394
113	104.5975
114	94.3979
115	79.7746
116	79.441
117	88.0276
118	80.7025
119	83.9023
120	101.7741
121	132.9809
122	104.6299
123	109.2253
124	77.0846
125	91.9754
126	87.488
127	84.8445
128	89.7202
129	80.9693
130	109.7109
131	105.8342
132	153.7085
133	101.1226
134	92.6629
135	108.2889
136	100.3417
137	96.5267
138	103.3811
139	89.0798
140	87.5127
141	112.9857
142	97.6747
143	115.8153
144	91.5891
145	111.6384
146	106.0344
147	110.8951
148	96.4512
149	105.4904
150	89.3956
151	90.8173
152	87.4235
153	105.1961
154	93.326
155	117.2852
156	91.1004
157	89.1569
158	83.0475
159	101.0484
160	75.9299
161	74.4551
162	100.1303
163	90.4014
164	104.2814
165	128.5203
166	101.8916
167	100.0203
168	88.7341
169	92.8777
170	74.5746
171	89.7744
172	90.67
173	97.2374
174	102.1706
175	103.0102
176	111.864
177	102.6208
178	99.5522
179	101.6201
180	88.1051
181	83.8779
182	78.9645
183	107.9831
184	79.4667
185	87.598
186	105.5403
187	116.7685
188	97.3362
189	86.7503
190	87.173
191	111.5156
192	90.4194
193	82.909
194	90.0787
195	91.4134
196	103.1129
197	111.0141
198	92.9612
199	103.6183
200	46.8653
