Position	Value
-200	231955.9298
-199	466329.1753
-198	466515.1735
-197	465150.2824
-196	466449.5689
-195	466633.3698
-194	465958.2092
-193	468107.5577
-192	468427.3855
-191	466778.5991
-190	469064.3494
-189	467583.5687
-188	467065.6887
-187	467505.1797
-186	468846.0262
-185	467201.4085
-184	468815.149
-183	470924.0597
-182	469970.334
-181	471305.3365
-180	470721.6334
-179	471819.3864
-178	471023.3353
-177	471243.8416
-176	471586.316
-175	471839.2327
-174	473671.2991
-173	472536.3952
-172	474387.6411
-171	473897.8834
-170	473908.893
-169	473498.8325
-168	474693.9622
-167	473768.4762
-166	475008.5614
-165	475604.8529
-164	475481.3991
-163	474501.0488
-162	475326.4587
-161	474583.8015
-160	473657.6799
-159	475512.1256
-158	474774.6568
-157	477009.2614
-156	477781.2971
-155	478190.0721
-154	478313.08
-153	479235.6638
-152	479087.1176
-151	478793.8287
-150	479861.6491
-149	477654.6263
-148	479637.3372
-147	482042.0235
-146	482966.9059
-145	482625.6004
-144	483378.2222
-143	483455.8313
-142	483740.2158
-141	485302.8691
-140	486270.8761
-139	485085.8815
-138	486633.965
-137	485231.2289
-136	485954.523
-135	485767.9483
-134	484562.9039
-133	484617.1971
-132	487537.1724
-131	486680.996
-130	486398.1729
-129	487402.7834
-128	485074.1929
-127	485215.9457
-126	487845.3122
-125	485049.3981
-124	488271.3275
-123	489326.2915
-122	490291.2824
-121	489077.3186
-120	491979.7464
-119	489023.8499
-118	489939.981
-117	491367.6597
-116	490764.6228
-115	490541.5975
-114	492015.3963
-113	490721.0058
-112	489475.3707
-111	491765.357
-110	491386.7357
-109	490767.2658
-108	492212.1636
-107	491659.2651
-106	490162.4783
-105	492948.8286
-104	489607.191
-103	491368.8878
-102	493164.5145
-101	493187.8714
-100	493921.2541
-99	494017.9093
-98	493477.448
-97	494440.0737
-96	496183.6162
-95	496271.5619
-94	497076.536
-93	498609.3476
-92	499067.2618
-91	501222.3966
-90	502310.2385
-89	504269.3863
-88	506960.8297
-87	509456.9938
-86	507767.878
-85	508882.019
-84	510027.915
-83	509616.2427
-82	507652.6831
-81	508350.9621
-80	506499.1458
-79	506188.1328
-78	505809.8433
-77	504745.7896
-76	505599.3404
-75	506528.5885
-74	504858.6325
-73	505147.9421
-72	507735.8962
-71	504636.9094
-70	505838.3715
-69	507786.1185
-68	507915.9599
-67	508296.9303
-66	509971.6331
-65	509874.7175
-64	510589.9903
-63	513298.5173
-62	513954.6372
-61	515809.2708
-60	519260.6769
-59	519948.1906
-58	522423.6516
-57	527063.4094
-56	527742.2409
-55	529881.331
-54	528547.824
-53	524629.8056
-52	521346.9248
-51	520842.7628
-50	514270.2272
-49	512722.7956
-48	515379.8479
-47	515656.8391
-46	518410.4195
-45	520984.9439
-44	519546.6896
-43	520595.469
-42	523116.1873
-41	521064.1676
-40	522490.1048
-39	522841.5508
-38	522326.6515
-37	520688.1194
-36	524202.7202
-35	524596.0564
-34	529870.2559
-33	536397.6531
-32	537704.9449
-31	543506.8696
-30	549494.9846
-29	549798.8302
-28	549117.6145
-27	583078.4679
-26	600418.8532
-25	593810.5017
-24	564601.7111
-23	522598.7007
-22	516703.9754
-21	525345.078
-20	539278.6762
-19	549810.3881
-18	563691.3684
-17	570258.0465
-16	583917.5425
-15	601721.9315
-14	615986.8595
-13	627182.8402
-12	643877.608
-11	642786.6054
-10	661924.4976
-9	678752.4554
-8	697355.1547
-7	730028.1332
-6	765559.8331
-5	782105.1661
-4	805799.6316
-3	851835.0237
-2	1057005.6389
-1	1093783.008
0	3612037.6122
1	1093783.008
2	1057005.6389
3	851835.0237
4	805799.6316
5	782105.1661
6	765559.8331
7	730028.1332
8	697355.1547
9	678752.4554
10	661924.4976
11	642786.6054
12	643877.608
13	627182.8402
14	615986.8595
15	601721.9315
16	583917.5425
17	570258.0465
18	563691.3684
19	549810.3881
20	539278.6762
21	525345.078
22	516703.9754
23	522598.7007
24	564601.7111
25	593810.5017
26	600418.8532
27	583078.4679
28	549117.6145
29	549798.8302
30	549494.9846
31	543506.8696
32	537704.9449
33	536397.6531
34	529870.2559
35	524596.0564
36	524202.7202
37	520688.1194
38	522326.6515
39	522841.5508
40	522490.1048
41	521064.1676
42	523116.1873
43	520595.469
44	519546.6896
45	520984.9439
46	518410.4195
47	515656.8391
48	515379.8479
49	512722.7956
50	514270.2272
51	520842.7628
52	521346.9248
53	524629.8056
54	528547.824
55	529881.331
56	527742.2409
57	527063.4094
58	522423.6516
59	519948.1906
60	519260.6769
61	515809.2708
62	513954.6372
63	513298.5173
64	510589.9903
65	509874.7175
66	509971.6331
67	508296.9303
68	507915.9599
69	507786.1185
70	505838.3715
71	504636.9094
72	507735.8962
73	505147.9421
74	504858.6325
75	506528.5885
76	505599.3404
77	504745.7896
78	505809.8433
79	506188.1328
80	506499.1458
81	508350.9621
82	507652.6831
83	509616.2427
84	510027.915
85	508882.019
86	507767.878
87	509456.9938
88	506960.8297
89	504269.3863
90	502310.2385
91	501222.3966
92	499067.2618
93	498609.3476
94	497076.536
95	496271.5619
96	496183.6162
97	494440.0737
98	493477.448
99	494017.9093
100	493921.2541
101	493187.8714
102	493164.5145
103	491368.8878
104	489607.191
105	492948.8286
106	490162.4783
107	491659.2651
108	492212.1636
109	490767.2658
110	491386.7357
111	491765.357
112	489475.3707
113	490721.0058
114	492015.3963
115	490541.5975
116	490764.6228
117	491367.6597
118	489939.981
119	489023.8499
120	491979.7464
121	489077.3186
122	490291.2824
123	489326.2915
124	488271.3275
125	485049.3981
126	487845.3122
127	485215.9457
128	485074.1929
129	487402.7834
130	486398.1729
131	486680.996
132	487537.1724
133	484617.1971
134	484562.9039
135	485767.9483
136	485954.523
137	485231.2289
138	486633.965
139	485085.8815
140	486270.8761
141	485302.8691
142	483740.2158
143	483455.8313
144	483378.2222
145	482625.6004
146	482966.9059
147	482042.0235
148	479637.3372
149	477654.6263
150	479861.6491
151	478793.8287
152	479087.1176
153	479235.6638
154	478313.08
155	478190.0721
156	477781.2971
157	477009.2614
158	474774.6568
159	475512.1256
160	473657.6799
161	474583.8015
162	475326.4587
163	474501.0488
164	475481.3991
165	475604.8529
166	475008.5614
167	473768.4762
168	474693.9622
169	473498.8325
170	473908.893
171	473897.8834
172	474387.6411
173	472536.3952
174	473671.2991
175	471839.2327
176	471586.316
177	471243.8416
178	471023.3353
179	471819.3864
180	470721.6334
181	471305.3365
182	469970.334
183	470924.0597
184	468815.149
185	467201.4085
186	468846.0262
187	467505.1797
188	467065.6887
189	467583.5687
190	469064.3494
191	466778.5991
192	468427.3855
193	468107.5577
194	465958.2092
195	466633.3698
196	466449.5689
197	465150.2824
198	466515.1735
199	466329.1753
200	231955.9298
