Position	Value
-200	32904.9422
-199	66340.2218
-198	65999.7627
-197	65595.7737
-196	65894.8344
-195	65900.0674
-194	65508.9678
-193	65480.9008
-192	66513.5827
-191	66717.0085
-190	65995.319
-189	65738.5626
-188	66053.9648
-187	66298.7963
-186	66892.8525
-185	65667.279
-184	65675.8832
-183	66017.3384
-182	65740.5392
-181	66217.9811
-180	66451.6326
-179	66831.1605
-178	67007.0804
-177	67788.9488
-176	67202.1035
-175	66939.2516
-174	67020.7267
-173	67222.483
-172	67220.7683
-171	67669.1921
-170	67362.9662
-169	67436.7054
-168	66853.5396
-167	67303.5875
-166	67829.1153
-165	67444.6016
-164	67980.7993
-163	67705.2428
-162	67948.6347
-161	67302.9262
-160	66975.8376
-159	66646.2367
-158	67398.5121
-157	67069.8075
-156	66651.0739
-155	67543.1858
-154	67149.5558
-153	67559.1266
-152	67542.9363
-151	67429.7018
-150	67529.5262
-149	67575.7416
-148	68059.4458
-147	68478.0132
-146	68179.2209
-145	68173.2334
-144	68104.1378
-143	68169.525
-142	67473.8243
-141	67951.1081
-140	67282.7338
-139	67394.8956
-138	68238.7068
-137	67767.4188
-136	67100.0831
-135	66984.64
-134	67057.1084
-133	66750.9481
-132	67486.4187
-131	67648.1162
-130	67201.3321
-129	67171.362
-128	67034.9297
-127	67322.6686
-126	67170.512
-125	66439.1943
-124	66906.2801
-123	66907.7568
-122	67113.1367
-121	67209.2421
-120	67646.7171
-119	67321.0979
-118	67398.5545
-117	68414.9542
-116	67895.5927
-115	68094.3651
-114	68559.9525
-113	68931.4357
-112	69393.9839
-111	68944.3192
-110	69186.0728
-109	68400.2683
-108	68492.6567
-107	68219.8296
-106	68101.2918
-105	68086.2319
-104	67733.7255
-103	67465.0694
-102	67416.8258
-101	67808.3895
-100	67701.3297
-99	68015.6259
-98	67769.1915
-97	67718.2309
-96	67891.1825
-95	67700.503
-94	68150.7911
-93	68389.643
-92	68621.2533
-91	67792.0763
-90	68418.0336
-89	69231.9604
-88	69360.6305
-87	69479.7765
-86	69764.5824
-85	69795.7503
-84	70385.1456
-83	70118.7542
-82	70145.907
-81	69760.9148
-80	69092.2085
-79	69108.3248
-78	68518.9479
-77	68065.3292
-76	67722.0992
-75	67848.5836
-74	67386.6309
-73	68019.4105
-72	67179.8603
-71	67687.6864
-70	67074.3678
-69	67764.0073
-68	67598.9813
-67	67591.4492
-66	68472.2756
-65	68541.3759
-64	69709.6996
-63	69686.5132
-62	69364.3127
-61	70618.3286
-60	71145.6476
-59	71612.2701
-58	72103.1544
-57	73067.0408
-56	73139.4482
-55	73290.4279
-54	73156.3037
-53	72635.9408
-52	72202.6326
-51	71326.7899
-50	69868.5465
-49	68942.7159
-48	68222.674
-47	67839.0004
-46	67584.5998
-45	68322.0461
-44	67706.6224
-43	68242.2444
-42	68305.3374
-41	68295.1056
-40	68020.0291
-39	68619.9067
-38	69496.9778
-37	69797.3026
-36	71335.8518
-35	71320.9483
-34	72560.1527
-33	73435.7472
-32	75414.3235
-31	75987.8067
-30	78891.0582
-29	81495.1336
-28	83622.4624
-27	85076.6774
-26	83570.2016
-25	82578.9112
-24	79241.2309
-23	75532.2734
-22	74374.1452
-21	75997.5031
-20	77681.349
-19	79545.601
-18	81949.685
-17	83845.6766
-16	86289.8163
-15	87991.7659
-14	87465.3918
-13	90751.9824
-12	93671.5848
-11	96744.1963
-10	102302.5313
-9	106974.8515
-8	116252.6639
-7	120291.1131
-6	129416.413
-5	142181.8725
-4	148799.3069
-3	164337.064
-2	208916.4556
-1	213400.0323
0	856878.5665
1	213400.0323
2	208916.4556
3	164337.064
4	148799.3069
5	142181.8725
6	129416.413
7	120291.1131
8	116252.6639
9	106974.8515
10	102302.5313
11	96744.1963
12	93671.5848
13	90751.9824
14	87465.3918
15	87991.7659
16	86289.8163
17	83845.6766
18	81949.685
19	79545.601
20	77681.349
21	75997.5031
22	74374.1452
23	75532.2734
24	79241.2309
25	82578.9112
26	83570.2016
27	85076.6774
28	83622.4624
29	81495.1336
30	78891.0582
31	75987.8067
32	75414.3235
33	73435.7472
34	72560.1527
35	71320.9483
36	71335.8518
37	69797.3026
38	69496.9778
39	68619.9067
40	68020.0291
41	68295.1056
42	68305.3374
43	68242.2444
44	67706.6224
45	68322.0461
46	67584.5998
47	67839.0004
48	68222.674
49	68942.7159
50	69868.5465
51	71326.7899
52	72202.6326
53	72635.9408
54	73156.3037
55	73290.4279
56	73139.4482
57	73067.0408
58	72103.1544
59	71612.2701
60	71145.6476
61	70618.3286
62	69364.3127
63	69686.5132
64	69709.6996
65	68541.3759
66	68472.2756
67	67591.4492
68	67598.9813
69	67764.0073
70	67074.3678
71	67687.6864
72	67179.8603
73	68019.4105
74	67386.6309
75	67848.5836
76	67722.0992
77	68065.3292
78	68518.9479
79	69108.3248
80	69092.2085
81	69760.9148
82	70145.907
83	70118.7542
84	70385.1456
85	69795.7503
86	69764.5824
87	69479.7765
88	69360.6305
89	69231.9604
90	68418.0336
91	67792.0763
92	68621.2533
93	68389.643
94	68150.7911
95	67700.503
96	67891.1825
97	67718.2309
98	67769.1915
99	68015.6259
100	67701.3297
101	67808.3895
102	67416.8258
103	67465.0694
104	67733.7255
105	68086.2319
106	68101.2918
107	68219.8296
108	68492.6567
109	68400.2683
110	69186.0728
111	68944.3192
112	69393.9839
113	68931.4357
114	68559.9525
115	68094.3651
116	67895.5927
117	68414.9542
118	67398.5545
119	67321.0979
120	67646.7171
121	67209.2421
122	67113.1367
123	66907.7568
124	66906.2801
125	66439.1943
126	67170.512
127	67322.6686
128	67034.9297
129	67171.362
130	67201.3321
131	67648.1162
132	67486.4187
133	66750.9481
134	67057.1084
135	66984.64
136	67100.0831
137	67767.4188
138	68238.7068
139	67394.8956
140	67282.7338
141	67951.1081
142	67473.8243
143	68169.525
144	68104.1378
145	68173.2334
146	68179.2209
147	68478.0132
148	68059.4458
149	67575.7416
150	67529.5262
151	67429.7018
152	67542.9363
153	67559.1266
154	67149.5558
155	67543.1858
156	66651.0739
157	67069.8075
158	67398.5121
159	66646.2367
160	66975.8376
161	67302.9262
162	67948.6347
163	67705.2428
164	67980.7993
165	67444.6016
166	67829.1153
167	67303.5875
168	66853.5396
169	67436.7054
170	67362.9662
171	67669.1921
172	67220.7683
173	67222.483
174	67020.7267
175	66939.2516
176	67202.1035
177	67788.9488
178	67007.0804
179	66831.1605
180	66451.6326
181	66217.9811
182	65740.5392
183	66017.3384
184	65675.8832
185	65667.279
186	66892.8525
187	66298.7963
188	66053.9648
189	65738.5626
190	65995.319
191	66717.0085
192	66513.5827
193	65480.9008
194	65508.9678
195	65900.0674
196	65894.8344
197	65595.7737
198	65999.7627
199	66340.2218
200	32904.9422
