Position	Value
-200	35.6968
-199	70.4305
-198	76.9798
-197	62.8606
-196	57.0917
-195	65.5973
-194	70.8838
-193	71.0223
-192	68.7021
-191	82.129
-190	75.4389
-189	80.4983
-188	63.8363
-187	65.7752
-186	80.0399
-185	63.2239
-184	69.0204
-183	64.0558
-182	72.6835
-181	66.2366
-180	62.7971
-179	74.0795
-178	80.7345
-177	79.0673
-176	73.2661
-175	72.1954
-174	62.7021
-173	67.4959
-172	60.5392
-171	56.3726
-170	59.276
-169	67.7534
-168	68.0552
-167	62.9215
-166	57.7302
-165	68.1355
-164	56.2078
-163	70.0853
-162	80.6699
-161	74.1945
-160	77.9231
-159	80.4128
-158	81.203
-157	83.9852
-156	82.4961
-155	67.7846
-154	68.8727
-153	64.5292
-152	88.2135
-151	70.7735
-150	88.1492
-149	83.3006
-148	89.3396
-147	91.8886
-146	69.3363
-145	65.6205
-144	59.0554
-143	69.6456
-142	70.7547
-141	72.1585
-140	64.1896
-139	73.0101
-138	70.3841
-137	62.1437
-136	65.0219
-135	61.0287
-134	70.8415
-133	62.6373
-132	71.2947
-131	74.6448
-130	71.2979
-129	59.024
-128	67.6509
-127	62.6522
-126	65.5516
-125	75.4917
-124	78.9397
-123	76.1407
-122	73.0262
-121	80.5505
-120	69.9194
-119	71.7651
-118	85.7597
-117	81.9817
-116	87.4559
-115	83.5977
-114	81.6598
-113	83.9663
-112	76.6516
-111	90.007
-110	74.6845
-109	78.6717
-108	74.524
-107	62.6303
-106	64.5718
-105	64.0272
-104	71.9283
-103	65.9627
-102	67.5424
-101	71.3845
-100	76.4009
-99	84.2193
-98	78.314
-97	86.9589
-96	81.1835
-95	84.3
-94	85.5518
-93	73.3582
-92	82.636
-91	89.2673
-90	89.6581
-89	81.3185
-88	63.1353
-87	75.5275
-86	76.1117
-85	68.2215
-84	76.0558
-83	86.2128
-82	77.1468
-81	83.753
-80	66.3623
-79	69.1685
-78	71.8071
-77	68.5044
-76	75.9639
-75	83.3207
-74	72.6853
-73	80.0271
-72	85.3264
-71	71.884
-70	80.6683
-69	85.7657
-68	80.6256
-67	76.8203
-66	75.6055
-65	83.5546
-64	79.8763
-63	73.7723
-62	78.5285
-61	77.8313
-60	84.2083
-59	75.1132
-58	71.5137
-57	78.6477
-56	65.2383
-55	78.6222
-54	74.6817
-53	83.993
-52	83.4468
-51	86.0539
-50	88.9276
-49	82.9608
-48	87.2782
-47	83.7105
-46	79.0466
-45	98.2641
-44	101.3191
-43	99.9391
-42	93.0558
-41	80.0943
-40	68.3595
-39	77.4231
-38	85.2765
-37	81.7426
-36	86.3127
-35	93.0939
-34	105.387
-33	104.0275
-32	104.6221
-31	105.1635
-30	97.7044
-29	99.1646
-28	85.7383
-27	98.5173
-26	85.4917
-25	89.8375
-24	104.1484
-23	94.0053
-22	99.3662
-21	94.5802
-20	93.1481
-19	101.6942
-18	114.2913
-17	112.0876
-16	107.4089
-15	110.6561
-14	139.97
-13	129.4074
-12	137.3124
-11	126.8541
-10	137.5623
-9	123.7069
-8	132.7976
-7	126.7936
-6	140.8599
-5	160.8368
-4	255.0785
-3	338.3904
-2	576.18
-1	814.2823
0	14985.7218
1	814.2823
2	576.18
3	338.3904
4	255.0785
5	160.8368
6	140.8599
7	126.7936
8	132.7976
9	123.7069
10	137.5623
11	126.8541
12	137.3124
13	129.4074
14	139.97
15	110.6561
16	107.4089
17	112.0876
18	114.2913
19	101.6942
20	93.1481
21	94.5802
22	99.3662
23	94.0053
24	104.1484
25	89.8375
26	85.4917
27	98.5173
28	85.7383
29	99.1646
30	97.7044
31	105.1635
32	104.6221
33	104.0275
34	105.387
35	93.0939
36	86.3127
37	81.7426
38	85.2765
39	77.4231
40	68.3595
41	80.0943
42	93.0558
43	99.9391
44	101.3191
45	98.2641
46	79.0466
47	83.7105
48	87.2782
49	82.9608
50	88.9276
51	86.0539
52	83.4468
53	83.993
54	74.6817
55	78.6222
56	65.2383
57	78.6477
58	71.5137
59	75.1132
60	84.2083
61	77.8313
62	78.5285
63	73.7723
64	79.8763
65	83.5546
66	75.6055
67	76.8203
68	80.6256
69	85.7657
70	80.6683
71	71.884
72	85.3264
73	80.0271
74	72.6853
75	83.3207
76	75.9639
77	68.5044
78	71.8071
79	69.1685
80	66.3623
81	83.753
82	77.1468
83	86.2128
84	76.0558
85	68.2215
86	76.1117
87	75.5275
88	63.1353
89	81.3185
90	89.6581
91	89.2673
92	82.636
93	73.3582
94	85.5518
95	84.3
96	81.1835
97	86.9589
98	78.314
99	84.2193
100	76.4009
101	71.3845
102	67.5424
103	65.9627
104	71.9283
105	64.0272
106	64.5718
107	62.6303
108	74.524
109	78.6717
110	74.6845
111	90.007
112	76.6516
113	83.9663
114	81.6598
115	83.5977
116	87.4559
117	81.9817
118	85.7597
119	71.7651
120	69.9194
121	80.5505
122	73.0262
123	76.1407
124	78.9397
125	75.4917
126	65.5516
127	62.6522
128	67.6509
129	59.024
130	71.2979
131	74.6448
132	71.2947
133	62.6373
134	70.8415
135	61.0287
136	65.0219
137	62.1437
138	70.3841
139	73.0101
140	64.1896
141	72.1585
142	70.7547
143	69.6456
144	59.0554
145	65.6205
146	69.3363
147	91.8886
148	89.3396
149	83.3006
150	88.1492
151	70.7735
152	88.2135
153	64.5292
154	68.8727
155	67.7846
156	82.4961
157	83.9852
158	81.203
159	80.4128
160	77.9231
161	74.1945
162	80.6699
163	70.0853
164	56.2078
165	68.1355
166	57.7302
167	62.9215
168	68.0552
169	67.7534
170	59.276
171	56.3726
172	60.5392
173	67.4959
174	62.7021
175	72.1954
176	73.2661
177	79.0673
178	80.7345
179	74.0795
180	62.7971
181	66.2366
182	72.6835
183	64.0558
184	69.0204
185	63.2239
186	80.0399
187	65.7752
188	63.8363
189	80.4983
190	75.4389
191	82.129
192	68.7021
193	71.0223
194	70.8838
195	65.5973
196	57.0917
197	62.8606
198	76.9798
199	70.4305
200	35.6968
