Position	Value
-200	134.4349
-199	280.4919
-198	321.0183
-197	332.2428
-196	266.8427
-195	224.6848
-194	231.4672
-193	218.1642
-192	255.816
-191	225.6017
-190	235.2057
-189	240.7115
-188	286.8538
-187	340.8963
-186	313.2283
-185	306.0952
-184	224.2577
-183	204.3331
-182	244.9179
-181	242.3057
-180	253.0322
-179	230.9427
-178	247.7317
-177	297.3212
-176	361.1882
-175	335.551
-174	279.2939
-173	234.9074
-172	216.4303
-171	242.2914
-170	257.5794
-169	246.2122
-168	241.2849
-167	261.7236
-166	319.371
-165	350.0182
-164	326.7842
-163	258.2142
-162	231.8758
-161	247.2624
-160	232.7784
-159	263.3493
-158	246.628
-157	242.5601
-156	259.5558
-155	316.2191
-154	342.3231
-153	310.7754
-152	290.391
-151	242.3141
-150	230.7331
-149	230.1531
-148	198.4906
-147	221.821
-146	243.5167
-145	254.6565
-144	310.3115
-143	404.2243
-142	367.6224
-141	288.2109
-140	244.9289
-139	223.9164
-138	207.4303
-137	233.552
-136	217.7261
-135	229.2885
-134	289.0608
-133	330.0055
-132	417.9045
-131	375.1207
-130	302.432
-129	231.8895
-128	182.5861
-127	222.0108
-126	245.9293
-125	251.4944
-124	248.5117
-123	296.285
-122	363.8197
-121	432.1565
-120	380.4147
-119	329.6992
-118	268.7115
-117	237.8366
-116	251.1429
-115	232.446
-114	265.1343
-113	245.7125
-112	276.6244
-111	330.4965
-110	412.2861
-109	360.2163
-108	289.6648
-107	207.0044
-106	225.3051
-105	233.0922
-104	248.8965
-103	250.5466
-102	251.2815
-101	275.6639
-100	362.2601
-99	423.782
-98	405.8455
-97	305.1962
-96	264.3492
-95	224.5801
-94	199.1902
-93	266.8772
-92	238.0883
-91	249.8495
-90	268.3434
-89	390.4252
-88	441.5606
-87	386.5067
-86	298.0131
-85	238.168
-84	213.4837
-83	183.9277
-82	236.7809
-81	223.8653
-80	255.1854
-79	276.9909
-78	355.581
-77	443.9002
-76	402.878
-75	307.2804
-74	241.6215
-73	232.9112
-72	240.2791
-71	265.2118
-70	256.2856
-69	266.1886
-68	295.4725
-67	397.1148
-66	499.9652
-65	393.475
-64	292.5777
-63	253.2138
-62	220.0952
-61	227.2457
-60	248.5581
-59	247.8804
-58	271.8849
-57	310.2548
-56	408.1325
-55	492.4398
-54	414.0748
-53	284.4509
-52	246.3878
-51	227.3439
-50	225.5414
-49	227.5666
-48	243.2681
-47	237.6848
-46	301.8927
-45	431.2949
-44	554.1172
-43	429.8122
-42	324.9322
-41	247.7412
-40	232.862
-39	248.5616
-38	238.5483
-37	242.4715
-36	266.1404
-35	320.2043
-34	422.7562
-33	552.3663
-32	437.7108
-31	325.2602
-30	286.4729
-29	255.6278
-28	272.814
-27	285.3516
-26	264.8461
-25	290.2466
-24	359.2918
-23	437.9506
-22	539.5302
-21	443.6302
-20	361.4655
-19	213.4884
-18	242.6689
-17	221.4415
-16	244.995
-15	264.4236
-14	291.8994
-13	386.8152
-12	599.2582
-11	760.5444
-10	575.2098
-9	456.2055
-8	325.6564
-7	318.3091
-6	328.9968
-5	330.6915
-4	397.283
-3	512.6513
-2	692.0508
-1	1136.5753
0	7800.1821
1	1136.5753
2	692.0508
3	512.6513
4	397.283
5	330.6915
6	328.9968
7	318.3091
8	325.6564
9	456.2055
10	575.2098
11	760.5444
12	599.2582
13	386.8152
14	291.8994
15	264.4236
16	244.995
17	221.4415
18	242.6689
19	213.4884
20	361.4655
21	443.6302
22	539.5302
23	437.9506
24	359.2918
25	290.2466
26	264.8461
27	285.3516
28	272.814
29	255.6278
30	286.4729
31	325.2602
32	437.7108
33	552.3663
34	422.7562
35	320.2043
36	266.1404
37	242.4715
38	238.5483
39	248.5616
40	232.862
41	247.7412
42	324.9322
43	429.8122
44	554.1172
45	431.2949
46	301.8927
47	237.6848
48	243.2681
49	227.5666
50	225.5414
51	227.3439
52	246.3878
53	284.4509
54	414.0748
55	492.4398
56	408.1325
57	310.2548
58	271.8849
59	247.8804
60	248.5581
61	227.2457
62	220.0952
63	253.2138
64	292.5777
65	393.475
66	499.9652
67	397.1148
68	295.4725
69	266.1886
70	256.2856
71	265.2118
72	240.2791
73	232.9112
74	241.6215
75	307.2804
76	402.878
77	443.9002
78	355.581
79	276.9909
80	255.1854
81	223.8653
82	236.7809
83	183.9277
84	213.4837
85	238.168
86	298.0131
87	386.5067
88	441.5606
89	390.4252
90	268.3434
91	249.8495
92	238.0883
93	266.8772
94	199.1902
95	224.5801
96	264.3492
97	305.1962
98	405.8455
99	423.782
100	362.2601
101	275.6639
102	251.2815
103	250.5466
104	248.8965
105	233.0922
106	225.3051
107	207.0044
108	289.6648
109	360.2163
110	412.2861
111	330.4965
112	276.6244
113	245.7125
114	265.1343
115	232.446
116	251.1429
117	237.8366
118	268.7115
119	329.6992
120	380.4147
121	432.1565
122	363.8197
123	296.285
124	248.5117
125	251.4944
126	245.9293
127	222.0108
128	182.5861
129	231.8895
130	302.432
131	375.1207
132	417.9045
133	330.0055
134	289.0608
135	229.2885
136	217.7261
137	233.552
138	207.4303
139	223.9164
140	244.9289
141	288.2109
142	367.6224
143	404.2243
144	310.3115
145	254.6565
146	243.5167
147	221.821
148	198.4906
149	230.1531
150	230.7331
151	242.3141
152	290.391
153	310.7754
154	342.3231
155	316.2191
156	259.5558
157	242.5601
158	246.628
159	263.3493
160	232.7784
161	247.2624
162	231.8758
163	258.2142
164	326.7842
165	350.0182
166	319.371
167	261.7236
168	241.2849
169	246.2122
170	257.5794
171	242.2914
172	216.4303
173	234.9074
174	279.2939
175	335.551
176	361.1882
177	297.3212
178	247.7317
179	230.9427
180	253.0322
181	242.3057
182	244.9179
183	204.3331
184	224.2577
185	306.0952
186	313.2283
187	340.8963
188	286.8538
189	240.7115
190	235.2057
191	225.6017
192	255.816
193	218.1642
194	231.4672
195	224.6848
196	266.8427
197	332.2428
198	321.0183
199	280.4919
200	134.4349
