Position	Value
-200	5481.036
-199	11244.7705
-198	11075.6436
-197	11098.2433
-196	11565.9742
-195	11432.1247
-194	11419.3569
-193	11341.4959
-192	11313.4502
-191	11138.0091
-190	11054.644
-189	11030.5851
-188	11264.7602
-187	11336.2
-186	11269.4465
-185	11264.9991
-184	11150.7595
-183	11470.7426
-182	11196.4012
-181	11211.5204
-180	11309.6006
-179	11274.2049
-178	11389.8358
-177	11560.857
-176	11255.4094
-175	11175.2479
-174	11334.2188
-173	11257.0273
-172	11068.9207
-171	11352.8707
-170	11199.1371
-169	11109.3752
-168	11089.3158
-167	11085.4146
-166	11433.8022
-165	11444.5233
-164	11465.2776
-163	11403.9799
-162	11345.321
-161	11573.5122
-160	11222.7422
-159	11310.0014
-158	11316.385
-157	11139.8475
-156	11263.9739
-155	11184.5681
-154	11208.5191
-153	11481.9615
-152	11534.3331
-151	11393.7134
-150	11432.3623
-149	11260.0668
-148	11366.7715
-147	11370.7233
-146	11520.8091
-145	11271.5818
-144	11793.2073
-143	11686.2736
-142	11327.1458
-141	11504.0139
-140	11368.575
-139	11361.6844
-138	11393.2601
-137	11059.5284
-136	11333.9631
-135	11010.1663
-134	11128.5075
-133	11143.0349
-132	11443.3473
-131	11195.5708
-130	11035.0057
-129	11151.2713
-128	11103.7251
-127	11222.8971
-126	10992.8538
-125	11052.2179
-124	11131.7571
-123	11039.0949
-122	11164.2528
-121	11178.5789
-120	11231.9568
-119	11545.8177
-118	11302.8055
-117	11592.1561
-116	11383.1901
-115	11484.8452
-114	11592.4314
-113	11672.3073
-112	11683.0714
-111	11710.4924
-110	11691.5242
-109	11745.5903
-108	11436.3077
-107	11553.7124
-106	11320.8737
-105	11288.5715
-104	11272.8466
-103	11122.4198
-102	10924.234
-101	11432.4661
-100	10995.0355
-99	11243.1217
-98	11429.8176
-97	11463.3714
-96	11776.5369
-95	11734.7203
-94	11685.9067
-93	11803.6999
-92	11616.1253
-91	11676.6498
-90	11943.8377
-89	12015.7308
-88	12165.8023
-87	12083.7038
-86	12087.4457
-85	12064.729
-84	12211.304
-83	11698.3036
-82	12076.947
-81	11716.878
-80	11877.1806
-79	11623.5867
-78	11704.3793
-77	11594.5188
-76	11164.1899
-75	11503.6405
-74	11381.3282
-73	11745.8432
-72	11854.3958
-71	11883.9298
-70	11745.7706
-69	11792.7472
-68	11720.8805
-67	11859.6352
-66	12108.4316
-65	12000.4198
-64	11887.2451
-63	11793.382
-62	11994.2108
-61	11709.7294
-60	11891.3976
-59	12090.2476
-58	12314.6097
-57	12142.946
-56	12048.1518
-55	12076.6193
-54	12111.8766
-53	12135.0542
-52	12161.9965
-51	11903.8888
-50	11603.4896
-49	11374.1692
-48	11296.508
-47	11332.0985
-46	11090.1822
-45	11031.7468
-44	11332.2216
-43	10737.8053
-42	10942.5669
-41	11163.3789
-40	11183.8635
-39	11463.6314
-38	11581.6574
-37	11839.0761
-36	12055.8477
-35	11997.8179
-34	12163.9967
-33	12265.0788
-32	12712.2273
-31	13204.0097
-30	13593.3414
-29	13868.8861
-28	14292.547
-27	14309.389
-26	13348.1855
-25	12986.2036
-24	12144.8184
-23	11613.8043
-22	11845.6279
-21	12017.9908
-20	12448.1903
-19	12875.7938
-18	13630.5769
-17	14348.2159
-16	14906.6876
-15	15709.2888
-14	16227.4432
-13	17533.2569
-12	18565.8779
-11	19812.1786
-10	21561.0481
-9	23761.027
-8	27995.1575
-7	29960.0526
-6	33654.2508
-5	39966.6518
-4	42426.6514
-3	49147.7176
-2	65017.9702
-1	63552.9712
0	294475.858
1	63552.9712
2	65017.9702
3	49147.7176
4	42426.6514
5	39966.6518
6	33654.2508
7	29960.0526
8	27995.1575
9	23761.027
10	21561.0481
11	19812.1786
12	18565.8779
13	17533.2569
14	16227.4432
15	15709.2888
16	14906.6876
17	14348.2159
18	13630.5769
19	12875.7938
20	12448.1903
21	12017.9908
22	11845.6279
23	11613.8043
24	12144.8184
25	12986.2036
26	13348.1855
27	14309.389
28	14292.547
29	13868.8861
30	13593.3414
31	13204.0097
32	12712.2273
33	12265.0788
34	12163.9967
35	11997.8179
36	12055.8477
37	11839.0761
38	11581.6574
39	11463.6314
40	11183.8635
41	11163.3789
42	10942.5669
43	10737.8053
44	11332.2216
45	11031.7468
46	11090.1822
47	11332.0985
48	11296.508
49	11374.1692
50	11603.4896
51	11903.8888
52	12161.9965
53	12135.0542
54	12111.8766
55	12076.6193
56	12048.1518
57	12142.946
58	12314.6097
59	12090.2476
60	11891.3976
61	11709.7294
62	11994.2108
63	11793.382
64	11887.2451
65	12000.4198
66	12108.4316
67	11859.6352
68	11720.8805
69	11792.7472
70	11745.7706
71	11883.9298
72	11854.3958
73	11745.8432
74	11381.3282
75	11503.6405
76	11164.1899
77	11594.5188
78	11704.3793
79	11623.5867
80	11877.1806
81	11716.878
82	12076.947
83	11698.3036
84	12211.304
85	12064.729
86	12087.4457
87	12083.7038
88	12165.8023
89	12015.7308
90	11943.8377
91	11676.6498
92	11616.1253
93	11803.6999
94	11685.9067
95	11734.7203
96	11776.5369
97	11463.3714
98	11429.8176
99	11243.1217
100	10995.0355
101	11432.4661
102	10924.234
103	11122.4198
104	11272.8466
105	11288.5715
106	11320.8737
107	11553.7124
108	11436.3077
109	11745.5903
110	11691.5242
111	11710.4924
112	11683.0714
113	11672.3073
114	11592.4314
115	11484.8452
116	11383.1901
117	11592.1561
118	11302.8055
119	11545.8177
120	11231.9568
121	11178.5789
122	11164.2528
123	11039.0949
124	11131.7571
125	11052.2179
126	10992.8538
127	11222.8971
128	11103.7251
129	11151.2713
130	11035.0057
131	11195.5708
132	11443.3473
133	11143.0349
134	11128.5075
135	11010.1663
136	11333.9631
137	11059.5284
138	11393.2601
139	11361.6844
140	11368.575
141	11504.0139
142	11327.1458
143	11686.2736
144	11793.2073
145	11271.5818
146	11520.8091
147	11370.7233
148	11366.7715
149	11260.0668
150	11432.3623
151	11393.7134
152	11534.3331
153	11481.9615
154	11208.5191
155	11184.5681
156	11263.9739
157	11139.8475
158	11316.385
159	11310.0014
160	11222.7422
161	11573.5122
162	11345.321
163	11403.9799
164	11465.2776
165	11444.5233
166	11433.8022
167	11085.4146
168	11089.3158
169	11109.3752
170	11199.1371
171	11352.8707
172	11068.9207
173	11257.0273
174	11334.2188
175	11175.2479
176	11255.4094
177	11560.857
178	11389.8358
179	11274.2049
180	11309.6006
181	11211.5204
182	11196.4012
183	11470.7426
184	11150.7595
185	11264.9991
186	11269.4465
187	11336.2
188	11264.7602
189	11030.5851
190	11054.644
191	11138.0091
192	11313.4502
193	11341.4959
194	11419.3569
195	11432.1247
196	11565.9742
197	11098.2433
198	11075.6436
199	11244.7705
200	5481.036
