Position	Value
-200	704.719
-199	1401.8994
-198	1421.0311
-197	1464.4461
-196	1447.2336
-195	1389.4013
-194	1437.6257
-193	1449.8904
-192	1467.5021
-191	1454.0838
-190	1509.3327
-189	1442.5416
-188	1434.1607
-187	1535.0323
-186	1458.223
-185	1448.1409
-184	1434.3366
-183	1472.4596
-182	1453.9524
-181	1417.7938
-180	1478.9822
-179	1385.8591
-178	1518.3191
-177	1524.7883
-176	1520.1237
-175	1474.2853
-174	1515.0542
-173	1481.8251
-172	1495.7841
-171	1517.6895
-170	1500.8889
-169	1515.8945
-168	1517.0736
-167	1482.5947
-166	1526.7072
-165	1549.5882
-164	1550.8006
-163	1530.4399
-162	1511.8833
-161	1478.8059
-160	1483.1946
-159	1537.715
-158	1458.9673
-157	1487.1109
-156	1543.5047
-155	1550.1676
-154	1636.9281
-153	1559.4764
-152	1567.8277
-151	1556.1146
-150	1585.3807
-149	1542.8166
-148	1592.7438
-147	1565.2237
-146	1554.5469
-145	1599.2345
-144	1635.9958
-143	1582.2849
-142	1604.1632
-141	1640.2468
-140	1571.6662
-139	1572.9393
-138	1579.897
-137	1518.0843
-136	1577.6341
-135	1637.6874
-134	1599.3861
-133	1587.8366
-132	1687.5187
-131	1672.5318
-130	1571.9902
-129	1557.0269
-128	1544.2436
-127	1499.0287
-126	1590.8897
-125	1535.1151
-124	1521.2008
-123	1631.168
-122	1631.6217
-121	1649.8358
-120	1668.9416
-119	1652.5965
-118	1566.5598
-117	1571.6215
-116	1527.6488
-115	1557.0439
-114	1520.9975
-113	1542.3336
-112	1543.4408
-111	1592.6247
-110	1619.3152
-109	1609.8756
-108	1539.2759
-107	1522.5235
-106	1535.2793
-105	1570.7796
-104	1619.9693
-103	1560.5432
-102	1582.2304
-101	1612.5197
-100	1639.0603
-99	1662.8715
-98	1660.3568
-97	1656.9551
-96	1639.4297
-95	1586.5964
-94	1622.6059
-93	1605.9584
-92	1576.8637
-91	1534.8355
-90	1646.2201
-89	1618.4885
-88	1750.9435
-87	1721.2815
-86	1734.9006
-85	1689.7332
-84	1679.5714
-83	1625.9217
-82	1681.2954
-81	1704.3643
-80	1606.8919
-79	1709.5748
-78	1787.3851
-77	1747.5792
-76	1643.4177
-75	1632.3756
-74	1672.4404
-73	1633.3159
-72	1694.2806
-71	1668.8117
-70	1621.5042
-69	1655.7467
-68	1694.3476
-67	1738.963
-66	1818.076
-65	1718.0436
-64	1760.9628
-63	1724.7033
-62	1771.2048
-61	1772.0231
-60	1694.4019
-59	1728.9903
-58	1667.3503
-57	1806.9967
-56	1797.3347
-55	1835.8787
-54	1852.9346
-53	1745.7072
-52	1734.5686
-51	1679.2901
-50	1650.3775
-49	1626.1322
-48	1645.6628
-47	1674.2703
-46	1738.7972
-45	1734.5296
-44	1755.1023
-43	1689.2419
-42	1691.1793
-41	1658.1509
-40	1667.0368
-39	1677.6049
-38	1710.6645
-37	1706.7257
-36	1805.3687
-35	1810.4599
-34	1852.0151
-33	1917.6051
-32	1942.354
-31	1933.5971
-30	1888.8007
-29	1849.0428
-28	1907.2601
-27	2023.3032
-26	2007.9251
-25	2000.494
-24	1974.8706
-23	1749.2319
-22	1856.0733
-21	1896.3344
-20	1802.6094
-19	1789.78
-18	1809.5423
-17	1814.1273
-16	1966.7861
-15	2032.1476
-14	2187.8108
-13	2233.6754
-12	2384.3801
-11	2552.6774
-10	2648.0039
-9	2650.8776
-8	2560.3016
-7	2721.1274
-6	2897.8926
-5	3242.8149
-4	3353.5711
-3	3732.916
-2	4427.8282
-1	5054.8829
0	55280.7071
1	5054.8829
2	4427.8282
3	3732.916
4	3353.5711
5	3242.8149
6	2897.8926
7	2721.1274
8	2560.3016
9	2650.8776
10	2648.0039
11	2552.6774
12	2384.3801
13	2233.6754
14	2187.8108
15	2032.1476
16	1966.7861
17	1814.1273
18	1809.5423
19	1789.78
20	1802.6094
21	1896.3344
22	1856.0733
23	1749.2319
24	1974.8706
25	2000.494
26	2007.9251
27	2023.3032
28	1907.2601
29	1849.0428
30	1888.8007
31	1933.5971
32	1942.354
33	1917.6051
34	1852.0151
35	1810.4599
36	1805.3687
37	1706.7257
38	1710.6645
39	1677.6049
40	1667.0368
41	1658.1509
42	1691.1793
43	1689.2419
44	1755.1023
45	1734.5296
46	1738.7972
47	1674.2703
48	1645.6628
49	1626.1322
50	1650.3775
51	1679.2901
52	1734.5686
53	1745.7072
54	1852.9346
55	1835.8787
56	1797.3347
57	1806.9967
58	1667.3503
59	1728.9903
60	1694.4019
61	1772.0231
62	1771.2048
63	1724.7033
64	1760.9628
65	1718.0436
66	1818.076
67	1738.963
68	1694.3476
69	1655.7467
70	1621.5042
71	1668.8117
72	1694.2806
73	1633.3159
74	1672.4404
75	1632.3756
76	1643.4177
77	1747.5792
78	1787.3851
79	1709.5748
80	1606.8919
81	1704.3643
82	1681.2954
83	1625.9217
84	1679.5714
85	1689.7332
86	1734.9006
87	1721.2815
88	1750.9435
89	1618.4885
90	1646.2201
91	1534.8355
92	1576.8637
93	1605.9584
94	1622.6059
95	1586.5964
96	1639.4297
97	1656.9551
98	1660.3568
99	1662.8715
100	1639.0603
101	1612.5197
102	1582.2304
103	1560.5432
104	1619.9693
105	1570.7796
106	1535.2793
107	1522.5235
108	1539.2759
109	1609.8756
110	1619.3152
111	1592.6247
112	1543.4408
113	1542.3336
114	1520.9975
115	1557.0439
116	1527.6488
117	1571.6215
118	1566.5598
119	1652.5965
120	1668.9416
121	1649.8358
122	1631.6217
123	1631.168
124	1521.2008
125	1535.1151
126	1590.8897
127	1499.0287
128	1544.2436
129	1557.0269
130	1571.9902
131	1672.5318
132	1687.5187
133	1587.8366
134	1599.3861
135	1637.6874
136	1577.6341
137	1518.0843
138	1579.897
139	1572.9393
140	1571.6662
141	1640.2468
142	1604.1632
143	1582.2849
144	1635.9958
145	1599.2345
146	1554.5469
147	1565.2237
148	1592.7438
149	1542.8166
150	1585.3807
151	1556.1146
152	1567.8277
153	1559.4764
154	1636.9281
155	1550.1676
156	1543.5047
157	1487.1109
158	1458.9673
159	1537.715
160	1483.1946
161	1478.8059
162	1511.8833
163	1530.4399
164	1550.8006
165	1549.5882
166	1526.7072
167	1482.5947
168	1517.0736
169	1515.8945
170	1500.8889
171	1517.6895
172	1495.7841
173	1481.8251
174	1515.0542
175	1474.2853
176	1520.1237
177	1524.7883
178	1518.3191
179	1385.8591
180	1478.9822
181	1417.7938
182	1453.9524
183	1472.4596
184	1434.3366
185	1448.1409
186	1458.223
187	1535.0323
188	1434.1607
189	1442.5416
190	1509.3327
191	1454.0838
192	1467.5021
193	1449.8904
194	1437.6257
195	1389.4013
196	1447.2336
197	1464.4461
198	1421.0311
199	1401.8994
200	704.719
