Position	Value
-200	59081.5657
-199	118522.6399
-198	118180.1675
-197	118255.3157
-196	117655.3106
-195	117937.2002
-194	118120.4812
-193	118271.1769
-192	117476.5422
-191	117774.4216
-190	116907.4942
-189	117452.9906
-188	117544.8312
-187	117074.5912
-186	116567.7559
-185	116986.6264
-184	116909.7566
-183	116964.1308
-182	116795.1431
-181	117624.8134
-180	117756.2932
-179	118654.4771
-178	118524.8478
-177	119366.9609
-176	118850.1585
-175	120034.9033
-174	120427.7785
-173	119568.4355
-172	120432.1749
-171	119738.9521
-170	119743.2579
-169	121066.59
-168	121593.4888
-167	120963.043
-166	121764.8759
-165	122476.016
-164	121812.2544
-163	121715.728
-162	121681.6613
-161	121353.3034
-160	121458.8209
-159	122500.1696
-158	121656.8129
-157	121701.5492
-156	122680.0652
-155	122222.7772
-154	121823.3789
-153	122131.7953
-152	122670.841
-151	122762.0801
-150	122910.2701
-149	122913.2575
-148	123586.6416
-147	122504.677
-146	123778.52
-145	123214.4434
-144	123687.696
-143	123387.4813
-142	123473.7604
-141	124317.4404
-140	124016.3973
-139	124717.0982
-138	125181.6086
-137	124550.0398
-136	124790.2611
-135	124703.2756
-134	124465.5546
-133	124424.3099
-132	124905.5727
-131	124257.3512
-130	124675.5896
-129	124522.6396
-128	124690.587
-127	123568.5269
-126	124106.6669
-125	122915.2051
-124	123311.2432
-123	123072.7815
-122	122829.7788
-121	123303.2907
-120	124088.2813
-119	123713.6478
-118	123517.834
-117	124031.3923
-116	125430.5096
-115	124579.2348
-114	124940.6921
-113	123922.0435
-112	123987.0765
-111	123760.5903
-110	123881.2469
-109	124404.4438
-108	125360.021
-107	126043.9649
-106	124984.9337
-105	125561.8218
-104	124985.1967
-103	126222.5323
-102	126720.5268
-101	127025.9768
-100	126757.1698
-99	127171.6573
-98	126130.5795
-97	126464.6565
-96	125975.0497
-95	125804.68
-94	126025.1405
-93	126083.2202
-92	126681.125
-91	126884.0207
-90	127011.4016
-89	127002.8863
-88	127270.3199
-87	128213.7605
-86	128165.965
-85	128665.3378
-84	129219.4698
-83	128665.3242
-82	129501.2455
-81	130208.3864
-80	129740.8508
-79	130614.6144
-78	129710.1406
-77	130175.5388
-76	130329.8116
-75	130088.7353
-74	130312.5819
-73	130516.3736
-72	131852.4063
-71	130488.6022
-70	130681.4561
-69	130900.3328
-68	130841.1271
-67	131301.982
-66	130648.2166
-65	130649.8827
-64	130508.0521
-63	131099.0337
-62	131198.5704
-61	131852.6856
-60	132559.3775
-59	132595.8746
-58	132820.549
-57	133987.0478
-56	133587.0072
-55	132982.1257
-54	133660.8602
-53	132101.3416
-52	132335.5035
-51	132350.7205
-50	131707.3059
-49	131117.8435
-48	132044.2316
-47	132744.2706
-46	132935.0545
-45	133585.6772
-44	132110.0881
-43	132589.0836
-42	133460.8132
-41	133117.2423
-40	133109.8118
-39	132657.4714
-38	132476.0999
-37	132735.3938
-36	134109.0655
-35	134566.6163
-34	134801.393
-33	136117.3924
-32	136935.7508
-31	138329.8982
-30	141364.7173
-29	141548.3349
-28	141822.2114
-27	140578.2235
-26	139570.4009
-25	141227.9259
-24	144836.6922
-23	143151.1182
-22	147996.8132
-21	151479.2426
-20	157397.4217
-19	161605.2804
-18	165649.4382
-17	168390.001
-16	171923.551
-15	176937.4335
-14	180774.7436
-13	186093.1859
-12	195388.1673
-11	201703.2598
-10	214394.9394
-9	228114.5737
-8	244526.6246
-7	270096.0164
-6	305511.1355
-5	350031.5663
-4	390570.0535
-3	459465.4081
-2	594795.6271
-1	689566.6446
0	1820572.7156
1	689566.6446
2	594795.6271
3	459465.4081
4	390570.0535
5	350031.5663
6	305511.1355
7	270096.0164
8	244526.6246
9	228114.5737
10	214394.9394
11	201703.2598
12	195388.1673
13	186093.1859
14	180774.7436
15	176937.4335
16	171923.551
17	168390.001
18	165649.4382
19	161605.2804
20	157397.4217
21	151479.2426
22	147996.8132
23	143151.1182
24	144836.6922
25	141227.9259
26	139570.4009
27	140578.2235
28	141822.2114
29	141548.3349
30	141364.7173
31	138329.8982
32	136935.7508
33	136117.3924
34	134801.393
35	134566.6163
36	134109.0655
37	132735.3938
38	132476.0999
39	132657.4714
40	133109.8118
41	133117.2423
42	133460.8132
43	132589.0836
44	132110.0881
45	133585.6772
46	132935.0545
47	132744.2706
48	132044.2316
49	131117.8435
50	131707.3059
51	132350.7205
52	132335.5035
53	132101.3416
54	133660.8602
55	132982.1257
56	133587.0072
57	133987.0478
58	132820.549
59	132595.8746
60	132559.3775
61	131852.6856
62	131198.5704
63	131099.0337
64	130508.0521
65	130649.8827
66	130648.2166
67	131301.982
68	130841.1271
69	130900.3328
70	130681.4561
71	130488.6022
72	131852.4063
73	130516.3736
74	130312.5819
75	130088.7353
76	130329.8116
77	130175.5388
78	129710.1406
79	130614.6144
80	129740.8508
81	130208.3864
82	129501.2455
83	128665.3242
84	129219.4698
85	128665.3378
86	128165.965
87	128213.7605
88	127270.3199
89	127002.8863
90	127011.4016
91	126884.0207
92	126681.125
93	126083.2202
94	126025.1405
95	125804.68
96	125975.0497
97	126464.6565
98	126130.5795
99	127171.6573
100	126757.1698
101	127025.9768
102	126720.5268
103	126222.5323
104	124985.1967
105	125561.8218
106	124984.9337
107	126043.9649
108	125360.021
109	124404.4438
110	123881.2469
111	123760.5903
112	123987.0765
113	123922.0435
114	124940.6921
115	124579.2348
116	125430.5096
117	124031.3923
118	123517.834
119	123713.6478
120	124088.2813
121	123303.2907
122	122829.7788
123	123072.7815
124	123311.2432
125	122915.2051
126	124106.6669
127	123568.5269
128	124690.587
129	124522.6396
130	124675.5896
131	124257.3512
132	124905.5727
133	124424.3099
134	124465.5546
135	124703.2756
136	124790.2611
137	124550.0398
138	125181.6086
139	124717.0982
140	124016.3973
141	124317.4404
142	123473.7604
143	123387.4813
144	123687.696
145	123214.4434
146	123778.52
147	122504.677
148	123586.6416
149	122913.2575
150	122910.2701
151	122762.0801
152	122670.841
153	122131.7953
154	121823.3789
155	122222.7772
156	122680.0652
157	121701.5492
158	121656.8129
159	122500.1696
160	121458.8209
161	121353.3034
162	121681.6613
163	121715.728
164	121812.2544
165	122476.016
166	121764.8759
167	120963.043
168	121593.4888
169	121066.59
170	119743.2579
171	119738.9521
172	120432.1749
173	119568.4355
174	120427.7785
175	120034.9033
176	118850.1585
177	119366.9609
178	118524.8478
179	118654.4771
180	117756.2932
181	117624.8134
182	116795.1431
183	116964.1308
184	116909.7566
185	116986.6264
186	116567.7559
187	117074.5912
188	117544.8312
189	117452.9906
190	116907.4942
191	117774.4216
192	117476.5422
193	118271.1769
194	118120.4812
195	117937.2002
196	117655.3106
197	118255.3157
198	118180.1675
199	118522.6399
200	59081.5657
