Position	Value
-200	19.5858
-199	39.5392
-198	43.3248
-197	49.0192
-196	47.3386
-195	50.933
-194	54.2164
-193	43.0711
-192	47.3677
-191	43.5953
-190	49.2756
-189	43.861
-188	46.3004
-187	54.2382
-186	45.8802
-185	45.2646
-184	39.4624
-183	38.3208
-182	42.1281
-181	43.985
-180	45.5214
-179	43.0003
-178	47.4749
-177	44.5698
-176	43.3083
-175	44.4471
-174	48.0473
-173	50.1205
-172	50.2997
-171	48.4479
-170	44.9989
-169	46.9848
-168	48.8035
-167	62.7299
-166	48.3164
-165	56.8127
-164	50.8322
-163	49.4986
-162	47.2588
-161	50.6733
-160	52.8647
-159	50.3609
-158	47.2932
-157	44.2944
-156	47.8152
-155	43.1452
-154	49.958
-153	45.1509
-152	45.4974
-151	51.3817
-150	48.8189
-149	53.1252
-148	56.2959
-147	48.4332
-146	45.6998
-145	46.6631
-144	51.0837
-143	53.3629
-142	51.0068
-141	49.8327
-140	45.6386
-139	46.7744
-138	46.4007
-137	41.2414
-136	46.9965
-135	52.1245
-134	50.512
-133	51.2474
-132	52.7729
-131	47.4156
-130	49.9915
-129	44.3354
-128	45.3769
-127	52.5442
-126	45.9599
-125	45.237
-124	46.0091
-123	46.031
-122	53.6704
-121	48.5835
-120	49.8441
-119	48.4228
-118	54.4549
-117	52.3162
-116	54.6019
-115	53.9947
-114	49.5556
-113	51.8714
-112	47.324
-111	50.9638
-110	60.262
-109	56.6696
-108	53.4368
-107	50.0102
-106	52.9096
-105	47.0294
-104	54.1778
-103	54.5993
-102	49.1523
-101	53.2174
-100	59.6718
-99	49.2191
-98	43.2256
-97	48.7401
-96	50.7933
-95	49.8819
-94	44.502
-93	47.5848
-92	43.8535
-91	48.7762
-90	45.6971
-89	51.6464
-88	57.0209
-87	50.9398
-86	49.9541
-85	49.8179
-84	57.978
-83	53.6539
-82	54.3293
-81	60.1122
-80	58.6921
-79	61.0685
-78	58.8223
-77	65.1219
-76	50.6292
-75	49.5639
-74	51.153
-73	55.0344
-72	51.8565
-71	51.6925
-70	49.642
-69	56.7711
-68	51.3078
-67	52.9938
-66	57.9094
-65	53.0996
-64	54.6962
-63	47.262
-62	47.1265
-61	55.5908
-60	48.4746
-59	55.212
-58	62.1882
-57	54.6446
-56	50.4186
-55	61.17
-54	52.4512
-53	52.5366
-52	52.8207
-51	58.1229
-50	51.8554
-49	55.4889
-48	59.8825
-47	57.5356
-46	61.5044
-45	68.6154
-44	72.3581
-43	72.5725
-42	63.5146
-41	60.3941
-40	57.5188
-39	64.4597
-38	60.7833
-37	69.7048
-36	70.4768
-35	74.824
-34	68.9372
-33	77.5591
-32	75.2252
-31	79.5428
-30	63.2559
-29	70.5042
-28	70.2032
-27	79.916
-26	76.4607
-25	73.6043
-24	84.9773
-23	83.1529
-22	80.5146
-21	99.3369
-20	81.1277
-19	87.1722
-18	90.083
-17	107.6811
-16	119.7452
-15	115.9344
-14	124.4541
-13	128.9325
-12	129.0792
-11	117.9494
-10	133.7088
-9	123.706
-8	123.7678
-7	139.5409
-6	156.2112
-5	186.2835
-4	230.1328
-3	367.0225
-2	487.488
-1	700.445
0	9855.8588
1	700.445
2	487.488
3	367.0225
4	230.1328
5	186.2835
6	156.2112
7	139.5409
8	123.7678
9	123.706
10	133.7088
11	117.9494
12	129.0792
13	128.9325
14	124.4541
15	115.9344
16	119.7452
17	107.6811
18	90.083
19	87.1722
20	81.1277
21	99.3369
22	80.5146
23	83.1529
24	84.9773
25	73.6043
26	76.4607
27	79.916
28	70.2032
29	70.5042
30	63.2559
31	79.5428
32	75.2252
33	77.5591
34	68.9372
35	74.824
36	70.4768
37	69.7048
38	60.7833
39	64.4597
40	57.5188
41	60.3941
42	63.5146
43	72.5725
44	72.3581
45	68.6154
46	61.5044
47	57.5356
48	59.8825
49	55.4889
50	51.8554
51	58.1229
52	52.8207
53	52.5366
54	52.4512
55	61.17
56	50.4186
57	54.6446
58	62.1882
59	55.212
60	48.4746
61	55.5908
62	47.1265
63	47.262
64	54.6962
65	53.0996
66	57.9094
67	52.9938
68	51.3078
69	56.7711
70	49.642
71	51.6925
72	51.8565
73	55.0344
74	51.153
75	49.5639
76	50.6292
77	65.1219
78	58.8223
79	61.0685
80	58.6921
81	60.1122
82	54.3293
83	53.6539
84	57.978
85	49.8179
86	49.9541
87	50.9398
88	57.0209
89	51.6464
90	45.6971
91	48.7762
92	43.8535
93	47.5848
94	44.502
95	49.8819
96	50.7933
97	48.7401
98	43.2256
99	49.2191
100	59.6718
101	53.2174
102	49.1523
103	54.5993
104	54.1778
105	47.0294
106	52.9096
107	50.0102
108	53.4368
109	56.6696
110	60.262
111	50.9638
112	47.324
113	51.8714
114	49.5556
115	53.9947
116	54.6019
117	52.3162
118	54.4549
119	48.4228
120	49.8441
121	48.5835
122	53.6704
123	46.031
124	46.0091
125	45.237
126	45.9599
127	52.5442
128	45.3769
129	44.3354
130	49.9915
131	47.4156
132	52.7729
133	51.2474
134	50.512
135	52.1245
136	46.9965
137	41.2414
138	46.4007
139	46.7744
140	45.6386
141	49.8327
142	51.0068
143	53.3629
144	51.0837
145	46.6631
146	45.6998
147	48.4332
148	56.2959
149	53.1252
150	48.8189
151	51.3817
152	45.4974
153	45.1509
154	49.958
155	43.1452
156	47.8152
157	44.2944
158	47.2932
159	50.3609
160	52.8647
161	50.6733
162	47.2588
163	49.4986
164	50.8322
165	56.8127
166	48.3164
167	62.7299
168	48.8035
169	46.9848
170	44.9989
171	48.4479
172	50.2997
173	50.1205
174	48.0473
175	44.4471
176	43.3083
177	44.5698
178	47.4749
179	43.0003
180	45.5214
181	43.985
182	42.1281
183	38.3208
184	39.4624
185	45.2646
186	45.8802
187	54.2382
188	46.3004
189	43.861
190	49.2756
191	43.5953
192	47.3677
193	43.0711
194	54.2164
195	50.933
196	47.3386
197	49.0192
198	43.3248
199	39.5392
200	19.5858
