Position	Value
-200	37.0175
-199	93.5292
-198	95.8934
-197	104.4646
-196	90.8352
-195	93.5768
-194	89.1071
-193	95.786
-192	81.9809
-191	84.0328
-190	82.7065
-189	78.2535
-188	86.1994
-187	91.0436
-186	89.0113
-185	88.739
-184	78.6267
-183	89.8447
-182	77.4114
-181	80.9147
-180	78.169
-179	85.64
-178	86.0821
-177	83.7465
-176	82.6827
-175	92.5144
-174	86.3897
-173	85.1321
-172	81.9824
-171	100.0685
-170	82.9024
-169	91.7658
-168	93.0682
-167	105.6144
-166	95.6324
-165	99.435
-164	102.8783
-163	99.006
-162	96.0083
-161	86.7139
-160	84.4131
-159	92.9114
-158	94.0566
-157	85.7469
-156	92.2069
-155	90.1531
-154	89.6171
-153	90.94
-152	77.3475
-151	88.6549
-150	80.5332
-149	80.2851
-148	81.4521
-147	76.6304
-146	76.0669
-145	95.2503
-144	89.6353
-143	96.3491
-142	83.6646
-141	84.8835
-140	85.9897
-139	87.511
-138	81.3801
-137	77.1944
-136	88.3787
-135	94.4115
-134	85.8814
-133	86.5406
-132	99.074
-131	93.1636
-130	79.6342
-129	83.3019
-128	82.2176
-127	65.4017
-126	83.4353
-125	75.1479
-124	85.2847
-123	88.2416
-122	78.6254
-121	98.7377
-120	97.3704
-119	90.8229
-118	87.5147
-117	99.8738
-116	97.674
-115	87.3963
-114	83.4999
-113	80.5993
-112	85.9584
-111	102.0686
-110	105.1089
-109	96.5028
-108	101.9263
-107	93.3235
-106	92.0804
-105	95.5275
-104	82.0083
-103	91.6127
-102	86.5352
-101	87.9482
-100	104.5058
-99	92.2522
-98	100.0803
-97	92.7472
-96	82.079
-95	95.3159
-94	79.3455
-93	109.4322
-92	93.6393
-91	90.052
-90	92.1518
-89	101.008
-88	111.944
-87	108.1807
-86	93.9781
-85	102.0337
-84	106.0205
-83	110.1286
-82	100.5872
-81	95.7361
-80	91.3854
-79	90.2886
-78	107.7992
-77	104.0815
-76	103.5511
-75	98.5484
-74	93.3138
-73	91.8703
-72	92.6261
-71	90.9803
-70	84.6049
-69	81.271
-68	84.687
-67	93.3164
-66	107.737
-65	92.253
-64	100.818
-63	103.5749
-62	113.8367
-61	105.5787
-60	95.317
-59	91.9495
-58	124.9496
-57	98.6981
-56	107.9987
-55	137.538
-54	124.9375
-53	108.5388
-52	106.797
-51	107.3816
-50	99.4387
-49	97.3724
-48	99.915
-47	106.5141
-46	104.153
-45	124.1571
-44	104.0045
-43	120.9155
-42	116.4966
-41	99.0014
-40	99.379
-39	101.0954
-38	127.0115
-37	114.842
-36	111.4842
-35	113.4967
-34	116.9008
-33	132.3383
-32	152.1281
-31	132.0421
-30	137.9639
-29	142.1153
-28	132.7744
-27	148.9072
-26	124.5369
-25	112.4755
-24	172.1651
-23	133.1596
-22	130.2366
-21	129.3378
-20	110.7556
-19	115.651
-18	103.1107
-17	100.288
-16	126.0647
-15	136.3752
-14	145.8388
-13	153.0921
-12	192.1812
-11	196.962
-10	193.4074
-9	208.2054
-8	234.5414
-7	229.358
-6	237.6983
-5	287.3347
-4	331.2053
-3	397.5201
-2	467.6758
-1	569.3389
0	9223.4061
1	569.3389
2	467.6758
3	397.5201
4	331.2053
5	287.3347
6	237.6983
7	229.358
8	234.5414
9	208.2054
10	193.4074
11	196.962
12	192.1812
13	153.0921
14	145.8388
15	136.3752
16	126.0647
17	100.288
18	103.1107
19	115.651
20	110.7556
21	129.3378
22	130.2366
23	133.1596
24	172.1651
25	112.4755
26	124.5369
27	148.9072
28	132.7744
29	142.1153
30	137.9639
31	132.0421
32	152.1281
33	132.3383
34	116.9008
35	113.4967
36	111.4842
37	114.842
38	127.0115
39	101.0954
40	99.379
41	99.0014
42	116.4966
43	120.9155
44	104.0045
45	124.1571
46	104.153
47	106.5141
48	99.915
49	97.3724
50	99.4387
51	107.3816
52	106.797
53	108.5388
54	124.9375
55	137.538
56	107.9987
57	98.6981
58	124.9496
59	91.9495
60	95.317
61	105.5787
62	113.8367
63	103.5749
64	100.818
65	92.253
66	107.737
67	93.3164
68	84.687
69	81.271
70	84.6049
71	90.9803
72	92.6261
73	91.8703
74	93.3138
75	98.5484
76	103.5511
77	104.0815
78	107.7992
79	90.2886
80	91.3854
81	95.7361
82	100.5872
83	110.1286
84	106.0205
85	102.0337
86	93.9781
87	108.1807
88	111.944
89	101.008
90	92.1518
91	90.052
92	93.6393
93	109.4322
94	79.3455
95	95.3159
96	82.079
97	92.7472
98	100.0803
99	92.2522
100	104.5058
101	87.9482
102	86.5352
103	91.6127
104	82.0083
105	95.5275
106	92.0804
107	93.3235
108	101.9263
109	96.5028
110	105.1089
111	102.0686
112	85.9584
113	80.5993
114	83.4999
115	87.3963
116	97.674
117	99.8738
118	87.5147
119	90.8229
120	97.3704
121	98.7377
122	78.6254
123	88.2416
124	85.2847
125	75.1479
126	83.4353
127	65.4017
128	82.2176
129	83.3019
130	79.6342
131	93.1636
132	99.074
133	86.5406
134	85.8814
135	94.4115
136	88.3787
137	77.1944
138	81.3801
139	87.511
140	85.9897
141	84.8835
142	83.6646
143	96.3491
144	89.6353
145	95.2503
146	76.0669
147	76.6304
148	81.4521
149	80.2851
150	80.5332
151	88.6549
152	77.3475
153	90.94
154	89.6171
155	90.1531
156	92.2069
157	85.7469
158	94.0566
159	92.9114
160	84.4131
161	86.7139
162	96.0083
163	99.006
164	102.8783
165	99.435
166	95.6324
167	105.6144
168	93.0682
169	91.7658
170	82.9024
171	100.0685
172	81.9824
173	85.1321
174	86.3897
175	92.5144
176	82.6827
177	83.7465
178	86.0821
179	85.64
180	78.169
181	80.9147
182	77.4114
183	89.8447
184	78.6267
185	88.739
186	89.0113
187	91.0436
188	86.1994
189	78.2535
190	82.7065
191	84.0328
192	81.9809
193	95.786
194	89.1071
195	93.5768
196	90.8352
197	104.4646
198	95.8934
199	93.5292
200	37.0175
