Position	Value
-200	82666.6
-199	83241.4
-198	82859.8
-197	83542.2
-196	83862.9
-195	83214.8
-194	83097
-193	82373.3
-192	83043.3
-191	82732
-190	83400.6
-189	83107.7
-188	82466.7
-187	83208.1
-186	83577.2
-185	84036.8
-184	83491.8
-183	84896.1
-182	83104.2
-181	84447.4
-180	84296.8
-179	84612.3
-178	84559.4
-177	86314
-176	85110.6
-175	85324.1
-174	85162
-173	85012.9
-172	84566
-171	84733.1
-170	83976.2
-169	84607.7
-168	84942.2
-167	84918.2
-166	84312.4
-165	84972.2
-164	84097.8
-163	83864.1
-162	84936.5
-161	83942.9
-160	84337
-159	84259
-158	83335.1
-157	84659.1
-156	84896.8
-155	84011.4
-154	84923.1
-153	84709.2
-152	85079
-151	85118
-150	86224
-149	86347
-148	85937.3
-147	86463.9
-146	86390.3
-145	86283
-144	85944.2
-143	86561.2
-142	87039.6
-141	87353.1
-140	86794.3
-139	86896.4
-138	86797.7
-137	85741
-136	87171.5
-135	85995.7
-134	85838.5
-133	86227.3
-132	85934.2
-131	85920.7
-130	85606.3
-129	86237.1
-128	86381.7
-127	85508.7
-126	85718.7
-125	85318.6
-124	86408.7
-123	86378
-122	86246.4
-121	87233.4
-120	87557.4
-119	87493
-118	87174.3
-117	87984.8
-116	87133
-115	87829
-114	88169
-113	87317.4
-112	87826.8
-111	88929.1
-110	88680.6
-109	88595.3
-108	89263.9
-107	88673.6
-106	88240.1
-105	88969.5
-104	87895.4
-103	88790.3
-102	89636.4
-101	89336.9
-100	89029.9
-99	88796
-98	88103.8
-97	87688
-96	87813.4
-95	87979.7
-94	88049.4
-93	88580.1
-92	88013.6
-91	88488.3
-90	89095.8
-89	89549.7
-88	88788.1
-87	89319.7
-86	89076.1
-85	89082.3
-84	88725.9
-83	88718.6
-82	89894.3
-81	90350.4
-80	89048.9
-79	90654.1
-78	91286.4
-77	91073.4
-76	91770.9
-75	92113.9
-74	91488.2
-73	92402.4
-72	91304.6
-71	91755.6
-70	91752.2
-69	92000.9
-68	93086.8
-67	91484.4
-66	93656.9
-65	92267.5
-64	92846.4
-63	93649.5
-62	92905.2
-61	93235.5
-60	92910.4
-59	91756.2
-58	91333
-57	90182.5
-56	89572.6
-55	89203.3
-54	88945.3
-53	87412.1
-52	87503.3
-51	88439.3
-50	89298
-49	89819.4
-48	90271.1
-47	91119.6
-46	92267.9
-45	92630.1
-44	92544.5
-43	92147.8
-42	93454.6
-41	92986.4
-40	94004.2
-39	95706.8
-38	96273.6
-37	98095.3
-36	98624
-35	100643
-34	100640
-33	102135
-32	103514
-31	103980
-30	107093
-29	107485
-28	103303
-27	96721.6
-26	89365.2
-25	86906.7
-24	85968.8
-23	83569.5
-22	86979.5
-21	91768.1
-20	94258.4
-19	93798
-18	97344.9
-17	98153.3
-16	100919
-15	102656
-14	104963
-13	108382
-12	113952
-11	118617
-10	128010
-9	135098
-8	144348
-7	155950
-6	155574
-5	187602
-4	208389
-3	245005
-2	291419
-1	280784
0	1.51536e+06
1	280784
2	291419
3	245005
4	208389
5	187602
6	155574
7	155950
8	144348
9	135098
10	128010
11	118617
12	113952
13	108382
14	104963
15	102656
16	100919
17	98153.3
18	97344.9
19	93798
20	94258.4
21	91768.1
22	86979.5
23	83569.5
24	85968.8
25	86906.7
26	89365.2
27	96721.6
28	103303
29	107485
30	107093
31	103980
32	103514
33	102135
34	100640
35	100643
36	98624
37	98095.3
38	96273.6
39	95706.8
40	94004.2
41	92986.4
42	93454.6
43	92147.8
44	92544.5
45	92630.1
46	92267.9
47	91119.6
48	90271.1
49	89819.4
50	89298
51	88439.3
52	87503.3
53	87412.1
54	88945.3
55	89203.3
56	89572.6
57	90182.5
58	91333
59	91756.2
60	92910.4
61	93235.5
62	92905.2
63	93649.5
64	92846.4
65	92267.5
66	93656.9
67	91484.4
68	93086.8
69	92000.9
70	91752.2
71	91755.6
72	91304.6
73	92402.4
74	91488.2
75	92113.9
76	91770.9
77	91073.4
78	91286.4
79	90654.1
80	89048.9
81	90350.4
82	89894.3
83	88718.6
84	88725.9
85	89082.3
86	89076.1
87	89319.7
88	88788.1
89	89549.7
90	89095.8
91	88488.3
92	88013.6
93	88580.1
94	88049.4
95	87979.7
96	87813.4
97	87688
98	88103.8
99	88796
100	89029.9
101	89336.9
102	89636.4
103	88790.3
104	87895.4
105	88969.5
106	88240.1
107	88673.6
108	89263.9
109	88595.3
110	88680.6
111	88929.1
112	87826.8
113	87317.4
114	88169
115	87829
116	87133
117	87984.8
118	87174.3
119	87493
120	87557.4
121	87233.4
122	86246.4
123	86378
124	86408.7
125	85318.6
126	85718.7
127	85508.7
128	86381.7
129	86237.1
130	85606.3
131	85920.7
132	85934.2
133	86227.3
134	85838.5
135	85995.7
136	87171.5
137	85741
138	86797.7
139	86896.4
140	86794.3
141	87353.1
142	87039.6
143	86561.2
144	85944.2
145	86283
146	86390.3
147	86463.9
148	85937.3
149	86347
150	86224
151	85118
152	85079
153	84709.2
154	84923.1
155	84011.4
156	84896.8
157	84659.1
158	83335.1
159	84259
160	84337
161	83942.9
162	84936.5
163	83864.1
164	84097.8
165	84972.2
166	84312.4
167	84918.2
168	84942.2
169	84607.7
170	83976.2
171	84733.1
172	84566
173	85012.9
174	85162
175	85324.1
176	85110.6
177	86314
178	84559.4
179	84612.3
180	84296.8
181	84447.4
182	83104.2
183	84896.1
184	83491.8
185	84036.8
186	83577.2
187	83208.1
188	82466.7
189	83107.7
190	83400.6
191	82732
192	83043.3
193	82373.3
194	83097
195	83214.8
196	83862.9
197	83542.2
198	82859.8
199	83241.4
200	82666.6
