Position	Value
-200	78010.1
-199	78772.9
-198	80752.9
-197	79512.4
-196	79844.3
-195	80830.9
-194	78627.9
-193	79216.7
-192	80434.7
-191	79420.6
-190	80048.2
-189	81864.1
-188	80740.2
-187	81425.6
-186	81793.2
-185	81116.9
-184	80179.6
-183	81586.9
-182	80724.8
-181	81574.1
-180	82461.6
-179	80833.5
-178	82038.6
-177	83620.8
-176	82508.3
-175	82213.2
-174	83185.1
-173	80380.2
-172	80290.3
-171	81146.1
-170	79547.6
-169	78998.6
-168	80137.5
-167	79559.1
-166	79650.5
-165	81087.3
-164	78879.7
-163	78824.2
-162	79112.7
-161	77166
-160	76151.9
-159	77653.7
-158	76659.9
-157	78080.3
-156	79581.7
-155	79074.4
-154	80015.9
-153	81375.1
-152	79386.6
-151	79689.7
-150	81253.6
-149	79459.7
-148	80162.9
-147	81628.1
-146	81298.7
-145	81937.2
-144	84113.7
-143	83071.6
-142	83784.3
-141	84642.8
-140	81716.1
-139	82315.6
-138	84134
-137	83144.1
-136	83191
-135	85895.9
-134	84177.5
-133	85304
-132	87446.7
-131	85621
-130	85501.3
-129	86468.2
-128	84581.5
-127	84512.4
-126	86196.2
-125	85640.9
-124	84092.4
-123	87506.8
-122	86363.9
-121	87433
-120	88321.5
-119	85604.5
-118	85211.3
-117	86063.9
-116	84234.1
-115	84883.3
-114	87055.4
-113	86101.9
-112	86569.6
-111	89425.4
-110	88024.5
-109	87303.6
-108	88767.7
-107	87684.5
-106	87160.9
-105	88587.5
-104	87305
-103	87981.1
-102	90141.5
-101	89424.8
-100	89465.5
-99	91192.8
-98	90154.4
-97	89395.1
-96	90309.2
-95	88176
-94	87398.3
-93	90193.5
-92	87958
-91	88617
-90	90765.5
-89	90310
-88	90052.3
-87	91850.7
-86	90301.1
-85	90520.8
-84	91929.5
-83	90237.4
-82	89849.4
-81	93515.3
-80	91884.9
-79	93324
-78	95408.1
-77	94160.5
-76	93315.7
-75	94961.3
-74	92382.6
-73	92732.5
-72	94077.6
-71	93068.4
-70	93619.9
-69	95976.1
-68	93396.6
-67	95090.2
-66	98000.1
-65	94622.3
-64	94495.7
-63	95904.4
-62	93770.7
-61	94301.1
-60	96122.1
-59	94873.8
-58	96020.7
-57	98350
-56	97936.8
-55	99411
-54	100364
-53	98186.2
-52	97219.1
-51	100172
-50	98048
-49	98335.9
-48	102119
-47	99930
-46	100962
-45	103954
-44	102597
-43	102387
-42	104505
-41	102030
-40	102358
-39	105227
-38	102473
-37	102851
-36	106204
-35	106759
-34	109745
-33	113346
-32	110309
-31	109916
-30	111783
-29	109262
-28	109767
-27	113663
-26	112842
-25	114932
-24	120394
-23	115884
-22	117319
-21	121185
-20	119641
-19	121711
-18	127610
-17	126872
-16	130030
-15	137423
-14	137834
-13	143231
-12	150684
-11	153489
-10	158833
-9	167220
-8	170331
-7	178442
-6	190747
-5	192258
-4	203636
-3	228285
-2	242169
-1	274177
0	631322
1	274177
2	242169
3	228285
4	203636
5	192258
6	190747
7	178442
8	170331
9	167220
10	158833
11	153489
12	150684
13	143231
14	137834
15	137423
16	130030
17	126872
18	127610
19	121711
20	119641
21	121185
22	117319
23	115884
24	120394
25	114932
26	112842
27	113663
28	109767
29	109262
30	111783
31	109916
32	110309
33	113346
34	109745
35	106759
36	106204
37	102851
38	102473
39	105227
40	102358
41	102030
42	104505
43	102387
44	102597
45	103954
46	100962
47	99930
48	102119
49	98335.9
50	98048
51	100172
52	97219.1
53	98186.2
54	100364
55	99411
56	97936.8
57	98350
58	96020.7
59	94873.8
60	96122.1
61	94301.1
62	93770.7
63	95904.4
64	94495.7
65	94622.3
66	98000.1
67	95090.2
68	93396.6
69	95976.1
70	93619.9
71	93068.4
72	94077.6
73	92732.5
74	92382.6
75	94961.3
76	93315.7
77	94160.5
78	95408.1
79	93324
80	91884.9
81	93515.3
82	89849.4
83	90237.4
84	91929.5
85	90520.8
86	90301.1
87	91850.7
88	90052.3
89	90310
90	90765.5
91	88617
92	87958
93	90193.5
94	87398.3
95	88176
96	90309.2
97	89395.1
98	90154.4
99	91192.8
100	89465.5
101	89424.8
102	90141.5
103	87981.1
104	87305
105	88587.5
106	87160.9
107	87684.5
108	88767.7
109	87303.6
110	88024.5
111	89425.4
112	86569.6
113	86101.9
114	87055.4
115	84883.3
116	84234.1
117	86063.9
118	85211.3
119	85604.5
120	88321.5
121	87433
122	86363.9
123	87506.8
124	84092.4
125	85640.9
126	86196.2
127	84512.4
128	84581.5
129	86468.2
130	85501.3
131	85621
132	87446.7
133	85304
134	84177.5
135	85895.9
136	83191
137	83144.1
138	84134
139	82315.6
140	81716.1
141	84642.8
142	83784.3
143	83071.6
144	84113.7
145	81937.2
146	81298.7
147	81628.1
148	80162.9
149	79459.7
150	81253.6
151	79689.7
152	79386.6
153	81375.1
154	80015.9
155	79074.4
156	79581.7
157	78080.3
158	76659.9
159	77653.7
160	76151.9
161	77166
162	79112.7
163	78824.2
164	78879.7
165	81087.3
166	79650.5
167	79559.1
168	80137.5
169	78998.6
170	79547.6
171	81146.1
172	80290.3
173	80380.2
174	83185.1
175	82213.2
176	82508.3
177	83620.8
178	82038.6
179	80833.5
180	82461.6
181	81574.1
182	80724.8
183	81586.9
184	80179.6
185	81116.9
186	81793.2
187	81425.6
188	80740.2
189	81864.1
190	80048.2
191	79420.6
192	80434.7
193	79216.7
194	78627.9
195	80830.9
196	79844.3
197	79512.4
198	80752.9
199	78772.9
200	78010.1
