Position	Value
-200	163491
-199	165264
-198	164399
-197	163295
-196	164530
-195	165454
-194	164994
-193	164737
-192	164907
-191	164976
-190	164315
-189	165801
-188	164923
-187	165248
-186	166884
-185	166496
-184	164443
-183	166710
-182	164737
-181	167786
-180	165979
-179	167726
-178	165707
-177	167116
-176	167127
-175	165031
-174	166700
-173	164698
-172	165610
-171	167511
-170	166252
-169	166366
-168	166876
-167	165539
-166	167429
-165	166746
-164	165671
-163	164518
-162	168091
-161	166903
-160	165939
-159	166503
-158	165505
-157	166570
-156	166631
-155	167172
-154	167361
-153	168149
-152	168231
-151	167321
-150	169648
-149	168402
-148	167391
-147	168854
-146	166959
-145	168136
-144	168532
-143	167442
-142	168796
-141	169103
-140	169337
-139	168922
-138	170418
-137	169646
-136	169571
-135	171093
-134	168315
-133	170274
-132	172218
-131	169981
-130	169353
-129	170680
-128	170804
-127	171074
-126	171868
-125	170876
-124	171528
-123	173155
-122	171538
-121	171499
-120	173832
-119	173797
-118	173191
-117	174261
-116	172591
-115	172683
-114	174250
-113	173123
-112	174746
-111	175717
-110	173669
-109	173769
-108	176331
-107	174348
-106	174578
-105	174899
-104	174758
-103	174714
-102	174753
-101	173817
-100	174348
-99	174419
-98	174366
-97	173596
-96	176270
-95	174488
-94	173269
-93	175108
-92	173937
-91	173544
-90	175338
-89	175725
-88	174185
-87	173343
-86	173292
-85	172209
-84	175766
-83	173727
-82	173735
-81	174954
-80	172874
-79	174776
-78	175523
-77	176401
-76	175760
-75	176712
-74	177453
-73	177666
-72	177617
-71	175919
-70	176831
-69	179562
-68	178670
-67	177839
-66	179848
-65	178619
-64	180563
-63	180846
-62	181415
-61	181169
-60	181228
-59	180113
-58	177505
-57	177564
-56	174526
-55	171758
-54	173256
-53	170595
-52	171086
-51	171663
-50	173407
-49	174557
-48	177136
-47	176679
-46	178742
-45	179022
-44	179390
-43	177588
-42	180951
-41	181047
-40	183709
-39	187693
-38	188265
-37	190789
-36	193611
-35	197133
-34	199150
-33	203963
-32	207967
-31	211970
-30	219131
-29	219189
-28	209120
-27	192309
-26	173415
-25	168656
-24	167084
-23	163058
-22	161961
-21	167892
-20	165077
-19	164301
-18	169027
-17	172122
-16	176673
-15	179922
-14	184885
-13	189278
-12	198204
-11	204793
-10	222155
-9	228925
-8	243097
-7	261969
-6	250921
-5	300583
-4	322014
-3	339814
-2	361237
-1	320792
0	2.05242e+06
1	320792
2	361237
3	339814
4	322014
5	300583
6	250921
7	261969
8	243097
9	228925
10	222155
11	204793
12	198204
13	189278
14	184885
15	179922
16	176673
17	172122
18	169027
19	164301
20	165077
21	167892
22	161961
23	163058
24	167084
25	168656
26	173415
27	192309
28	209120
29	219189
30	219131
31	211970
32	207967
33	203963
34	199150
35	197133
36	193611
37	190789
38	188265
39	187693
40	183709
41	181047
42	180951
43	177588
44	179390
45	179022
46	178742
47	176679
48	177136
49	174557
50	173407
51	171663
52	171086
53	170595
54	173256
55	171758
56	174526
57	177564
58	177505
59	180113
60	181228
61	181169
62	181415
63	180846
64	180563
65	178619
66	179848
67	177839
68	178670
69	179562
70	176831
71	175919
72	177617
73	177666
74	177453
75	176712
76	175760
77	176401
78	175523
79	174776
80	172874
81	174954
82	173735
83	173727
84	175766
85	172209
86	173292
87	173343
88	174185
89	175725
90	175338
91	173544
92	173937
93	175108
94	173269
95	174488
96	176270
97	173596
98	174366
99	174419
100	174348
101	173817
102	174753
103	174714
104	174758
105	174899
106	174578
107	174348
108	176331
109	173769
110	173669
111	175717
112	174746
113	173123
114	174250
115	172683
116	172591
117	174261
118	173191
119	173797
120	173832
121	171499
122	171538
123	173155
124	171528
125	170876
126	171868
127	171074
128	170804
129	170680
130	169353
131	169981
132	172218
133	170274
134	168315
135	171093
136	169571
137	169646
138	170418
139	168922
140	169337
141	169103
142	168796
143	167442
144	168532
145	168136
146	166959
147	168854
148	167391
149	168402
150	169648
151	167321
152	168231
153	168149
154	167361
155	167172
156	166631
157	166570
158	165505
159	166503
160	165939
161	166903
162	168091
163	164518
164	165671
165	166746
166	167429
167	165539
168	166876
169	166366
170	166252
171	167511
172	165610
173	164698
174	166700
175	165031
176	167127
177	167116
178	165707
179	167726
180	165979
181	167786
182	164737
183	166710
184	164443
185	166496
186	166884
187	165248
188	164923
189	165801
190	164315
191	164976
192	164907
193	164737
194	164994
195	165454
196	164530
197	163295
198	164399
199	165264
200	163491
