Position	Value
-200	32.6249
-199	49.7756
-198	48.8111
-197	47.4182
-196	52.9968
-195	34.5991
-194	47.3126
-193	51.5207
-192	44.1614
-191	41.8256
-190	43.5804
-189	52.0804
-188	43.9194
-187	62.8568
-186	64.037
-185	41.0902
-184	47.5483
-183	42.6873
-182	53.0521
-181	46.0691
-180	44.6302
-179	52.6279
-178	54.4219
-177	56.0787
-176	60.7807
-175	67.2602
-174	66.4787
-173	54.0462
-172	49.0729
-171	48.2073
-170	52.6179
-169	43.1509
-168	64.1033
-167	48.2413
-166	52.8174
-165	70.2056
-164	72.2099
-163	68.8385
-162	56.6963
-161	56.7494
-160	48.4271
-159	50.718
-158	53.3787
-157	65.0664
-156	56.217
-155	66.9919
-154	81.9246
-153	60.7578
-152	59.6272
-151	60.8243
-150	61.8679
-149	49.62
-148	42.9782
-147	49.8177
-146	61.8294
-145	55.5746
-144	47.3018
-143	73.1183
-142	67.1728
-141	51.3778
-140	44.2624
-139	42.9688
-138	44.578
-137	63.513
-136	54.2013
-135	52.2119
-134	61.2458
-133	64.1581
-132	70.1782
-131	70.0151
-130	64.4173
-129	56.3531
-128	59.6439
-127	56.2859
-126	53.9186
-125	45.883
-124	55.1465
-123	59.7262
-122	53.5775
-121	74.3728
-120	61.0132
-119	67.2954
-118	64.7256
-117	58.8408
-116	51.8671
-115	50.5384
-114	51.2679
-113	57.9677
-112	53.0515
-111	74.9814
-110	72.1958
-109	66.2532
-108	46.9084
-107	57.3014
-106	57.2705
-105	67.7452
-104	52.1439
-103	46.9307
-102	63.457
-101	59.6868
-100	74.6533
-99	68.5047
-98	61.7684
-97	66.936
-96	51.2835
-95	61.014
-94	60.8618
-93	67.7265
-92	65.7442
-91	58.2809
-90	66.1207
-89	70.1678
-88	88.3702
-87	58.7463
-86	60.3594
-85	68.2474
-84	66.3998
-83	64.4048
-82	60.4293
-81	61.7625
-80	66.435
-79	70.3949
-78	73.1328
-77	80.597
-76	74.5212
-75	50.4094
-74	51.8148
-73	57.3585
-72	60.5078
-71	54.2989
-70	55.7305
-69	71.9327
-68	58.2186
-67	61.0005
-66	81.2574
-65	79.7915
-64	71.8744
-63	67.8828
-62	65.4548
-61	64.0444
-60	55.6637
-59	65.1017
-58	61.1615
-57	68.305
-56	78.2258
-55	100.709
-54	82.1476
-53	70.7272
-52	64.0387
-51	65.0614
-50	67.8663
-49	65.157
-48	84.1516
-47	67.7663
-46	72.5746
-45	77.2156
-44	86.0677
-43	86.3414
-42	72.1731
-41	80.3793
-40	76.2509
-39	78.3196
-38	79.7203
-37	87.8938
-36	71.6343
-35	75.7324
-34	87.3921
-33	112.0887
-32	101.312
-31	91.307
-30	74.6553
-29	83.6075
-28	86.8957
-27	84.4558
-26	92.8044
-25	77.04
-24	101.5618
-23	84.7949
-22	90.712
-21	89.1697
-20	78.3595
-19	64.0405
-18	73.4057
-17	70.5832
-16	75.5885
-15	75.6682
-14	87.37
-13	88.2136
-12	122.5654
-11	137.4019
-10	126.8108
-9	125.2722
-8	102.3744
-7	116.129
-6	132.5249
-5	155.3901
-4	188.1246
-3	203.9249
-2	242.7244
-1	368.7302
0	7075.9271
1	368.7302
2	242.7244
3	203.9249
4	188.1246
5	155.3901
6	132.5249
7	116.129
8	102.3744
9	125.2722
10	126.8108
11	137.4019
12	122.5654
13	88.2136
14	87.37
15	75.6682
16	75.5885
17	70.5832
18	73.4057
19	64.0405
20	78.3595
21	89.1697
22	90.712
23	84.7949
24	101.5618
25	77.04
26	92.8044
27	84.4558
28	86.8957
29	83.6075
30	74.6553
31	91.307
32	101.312
33	112.0887
34	87.3921
35	75.7324
36	71.6343
37	87.8938
38	79.7203
39	78.3196
40	76.2509
41	80.3793
42	72.1731
43	86.3414
44	86.0677
45	77.2156
46	72.5746
47	67.7663
48	84.1516
49	65.157
50	67.8663
51	65.0614
52	64.0387
53	70.7272
54	82.1476
55	100.709
56	78.2258
57	68.305
58	61.1615
59	65.1017
60	55.6637
61	64.0444
62	65.4548
63	67.8828
64	71.8744
65	79.7915
66	81.2574
67	61.0005
68	58.2186
69	71.9327
70	55.7305
71	54.2989
72	60.5078
73	57.3585
74	51.8148
75	50.4094
76	74.5212
77	80.597
78	73.1328
79	70.3949
80	66.435
81	61.7625
82	60.4293
83	64.4048
84	66.3998
85	68.2474
86	60.3594
87	58.7463
88	88.3702
89	70.1678
90	66.1207
91	58.2809
92	65.7442
93	67.7265
94	60.8618
95	61.014
96	51.2835
97	66.936
98	61.7684
99	68.5047
100	74.6533
101	59.6868
102	63.457
103	46.9307
104	52.1439
105	67.7452
106	57.2705
107	57.3014
108	46.9084
109	66.2532
110	72.1958
111	74.9814
112	53.0515
113	57.9677
114	51.2679
115	50.5384
116	51.8671
117	58.8408
118	64.7256
119	67.2954
120	61.0132
121	74.3728
122	53.5775
123	59.7262
124	55.1465
125	45.883
126	53.9186
127	56.2859
128	59.6439
129	56.3531
130	64.4173
131	70.0151
132	70.1782
133	64.1581
134	61.2458
135	52.2119
136	54.2013
137	63.513
138	44.578
139	42.9688
140	44.2624
141	51.3778
142	67.1728
143	73.1183
144	47.3018
145	55.5746
146	61.8294
147	49.8177
148	42.9782
149	49.62
150	61.8679
151	60.8243
152	59.6272
153	60.7578
154	81.9246
155	66.9919
156	56.217
157	65.0664
158	53.3787
159	50.718
160	48.4271
161	56.7494
162	56.6963
163	68.8385
164	72.2099
165	70.2056
166	52.8174
167	48.2413
168	64.1033
169	43.1509
170	52.6179
171	48.2073
172	49.0729
173	54.0462
174	66.4787
175	67.2602
176	60.7807
177	56.0787
178	54.4219
179	52.6279
180	44.6302
181	46.0691
182	53.0521
183	42.6873
184	47.5483
185	41.0902
186	64.037
187	62.8568
188	43.9194
189	52.0804
190	43.5804
191	41.8256
192	44.1614
193	51.5207
194	47.3126
195	34.5991
196	52.9968
197	47.4182
198	48.8111
199	49.7756
200	32.6249
