Position	Value
-200	201273
-199	200991
-198	200834
-197	200396
-196	201604
-195	202367
-194	200916
-193	202380
-192	203525
-191	201539
-190	202146
-189	203960
-188	202165
-187	203439
-186	203985
-185	203185
-184	202289
-183	204692
-182	202714
-181	203181
-180	203582
-179	203955
-178	204549
-177	204465
-176	205251
-175	204312
-174	204346
-173	203574
-172	203307
-171	203674
-170	202063
-169	201958
-168	201409
-167	202004
-166	202716
-165	204827
-164	202617
-163	203354
-162	204482
-161	203584
-160	204224
-159	203968
-158	204659
-157	206163
-156	207532
-155	207528
-154	210474
-153	210626
-152	209057
-151	209389
-150	209952
-149	210969
-148	211443
-147	212083
-146	211866
-145	212684
-144	213363
-143	213878
-142	212761
-141	213344
-140	211182
-139	212035
-138	212375
-137	213151
-136	213200
-135	214605
-134	215061
-133	215371
-132	217137
-131	215941
-130	214633
-129	214869
-128	213808
-127	214674
-126	214918
-125	213618
-124	214826
-123	214236
-122	215703
-121	215648
-120	217003
-119	216760
-118	216886
-117	216870
-116	216246
-115	216927
-114	217309
-113	216728
-112	216771
-111	217403
-110	217018
-109	215951
-108	215949
-107	216309
-106	216101
-105	216674
-104	216772
-103	216413
-102	218484
-101	217183
-100	217583
-99	219048
-98	219847
-97	218128
-96	218618
-95	218333
-94	218637
-93	218629
-92	216469
-91	218036
-90	219426
-89	220025
-88	220512
-87	220659
-86	219523
-85	218655
-84	219650
-83	219408
-82	219940
-81	220796
-80	220481
-79	223056
-78	223322
-77	223880
-76	222603
-75	223886
-74	223289
-73	222011
-72	222464
-71	221420
-70	221002
-69	224589
-68	224829
-67	224235
-66	226644
-65	225534
-64	224499
-63	225608
-62	223586
-61	223384
-60	225181
-59	223103
-58	222456
-57	223777
-56	223674
-55	223585
-54	225095
-53	224375
-52	225754
-51	227518
-50	228502
-49	230117
-48	233630
-47	234831
-46	236967
-45	237331
-44	238224
-43	237084
-42	238290
-41	239118
-40	241641
-39	244324
-38	245084
-37	247357
-36	252056
-35	257365
-34	257653
-33	260294
-32	260439
-31	260082
-30	261629
-29	259839
-28	249899
-27	236992
-26	225666
-25	223522
-24	220925
-23	216168
-22	219444
-21	227047
-20	229405
-19	234055
-18	240914
-17	246812
-16	252884
-15	258826
-14	267349
-13	274568
-12	285680
-11	297619
-10	316127
-9	330103
-8	348702
-7	370861
-6	381399
-5	432777
-4	469514
-3	524661
-2	587485
-1	614002
0	2.19864e+06
1	614002
2	587485
3	524661
4	469514
5	432777
6	381399
7	370861
8	348702
9	330103
10	316127
11	297619
12	285680
13	274568
14	267349
15	258826
16	252884
17	246812
18	240914
19	234055
20	229405
21	227047
22	219444
23	216168
24	220925
25	223522
26	225666
27	236992
28	249899
29	259839
30	261629
31	260082
32	260439
33	260294
34	257653
35	257365
36	252056
37	247357
38	245084
39	244324
40	241641
41	239118
42	238290
43	237084
44	238224
45	237331
46	236967
47	234831
48	233630
49	230117
50	228502
51	227518
52	225754
53	224375
54	225095
55	223585
56	223674
57	223777
58	222456
59	223103
60	225181
61	223384
62	223586
63	225608
64	224499
65	225534
66	226644
67	224235
68	224829
69	224589
70	221002
71	221420
72	222464
73	222011
74	223289
75	223886
76	222603
77	223880
78	223322
79	223056
80	220481
81	220796
82	219940
83	219408
84	219650
85	218655
86	219523
87	220659
88	220512
89	220025
90	219426
91	218036
92	216469
93	218629
94	218637
95	218333
96	218618
97	218128
98	219847
99	219048
100	217583
101	217183
102	218484
103	216413
104	216772
105	216674
106	216101
107	216309
108	215949
109	215951
110	217018
111	217403
112	216771
113	216728
114	217309
115	216927
116	216246
117	216870
118	216886
119	216760
120	217003
121	215648
122	215703
123	214236
124	214826
125	213618
126	214918
127	214674
128	213808
129	214869
130	214633
131	215941
132	217137
133	215371
134	215061
135	214605
136	213200
137	213151
138	212375
139	212035
140	211182
141	213344
142	212761
143	213878
144	213363
145	212684
146	211866
147	212083
148	211443
149	210969
150	209952
151	209389
152	209057
153	210626
154	210474
155	207528
156	207532
157	206163
158	204659
159	203968
160	204224
161	203584
162	204482
163	203354
164	202617
165	204827
166	202716
167	202004
168	201409
169	201958
170	202063
171	203674
172	203307
173	203574
174	204346
175	204312
176	205251
177	204465
178	204549
179	203955
180	203582
181	203181
182	202714
183	204692
184	202289
185	203185
186	203985
187	203439
188	202165
189	203960
190	202146
191	201539
192	203525
193	202380
194	200916
195	202367
196	201604
197	200396
198	200834
199	200991
200	201273
