Position	Value
-200	45.3083
-199	92.5155
-198	93.0671
-197	82.5554
-196	92.4824
-195	81.8298
-194	85.3069
-193	85.9269
-192	91.7097
-191	82.7711
-190	76.7078
-189	90.0311
-188	87.1038
-187	92.0847
-186	92.696
-185	86.1295
-184	88.6333
-183	97.187
-182	96.7755
-181	90.5951
-180	93.8036
-179	89.1699
-178	92.9934
-177	92.0565
-176	86.6361
-175	85.2529
-174	103.4597
-173	89.116
-172	89.9957
-171	92.2087
-170	99.8665
-169	96.9114
-168	84.879
-167	80.7808
-166	80.9959
-165	88.6465
-164	73.1952
-163	78.922
-162	65.57
-161	76.1972
-160	78.0081
-159	87.0128
-158	77.1871
-157	78.5564
-156	94.4801
-155	102.7563
-154	92.8803
-153	99.018
-152	91.1255
-151	89.2698
-150	87.1005
-149	90.5461
-148	84.4654
-147	95.2635
-146	81.2603
-145	75.5298
-144	89.35
-143	103.6113
-142	108.7571
-141	101.008
-140	90.7259
-139	101.0184
-138	83.8467
-137	83.1658
-136	98.4962
-135	90.1994
-134	98.0857
-133	89.2509
-132	95.1781
-131	97.4394
-130	87.9211
-129	96.6182
-128	95.206
-127	90.8107
-126	104.824
-125	88.7734
-124	103.0013
-123	90.3225
-122	104.9666
-121	112.9214
-120	98.6974
-119	91.6562
-118	102.2458
-117	94.6864
-116	80.3318
-115	87.437
-114	85.2521
-113	90.9676
-112	94.1978
-111	99.8023
-110	99.1257
-109	99.8218
-108	90.0433
-107	93.0511
-106	77.4101
-105	103.0878
-104	84.1627
-103	82.2434
-102	100.9183
-101	79.4372
-100	95.6661
-99	101.3558
-98	103.4325
-97	105.7944
-96	98.5339
-95	94.5619
-94	98.093
-93	84.8622
-92	87.7335
-91	93.7762
-90	90.054
-89	110.2797
-88	122.6562
-87	102.0218
-86	97.6724
-85	94.1058
-84	95.7932
-83	98.784
-82	93.2173
-81	114.4071
-80	96.3281
-79	98.1871
-78	115.889
-77	108.1417
-76	97.4855
-75	100.5747
-74	101.5614
-73	93.2627
-72	100.468
-71	90.1245
-70	98.2706
-69	104.878
-68	110.3134
-67	103.7563
-66	113.154
-65	110.3785
-64	98.9278
-63	100.1564
-62	95.0679
-61	103.2394
-60	106.5876
-59	105.5916
-58	113.076
-57	112.2039
-56	125.1187
-55	116.2519
-54	126.4989
-53	111.8684
-52	110.2435
-51	109.7417
-50	106.9574
-49	117.4249
-48	129.9657
-47	111.1801
-46	125.0787
-45	132.1838
-44	144.5719
-43	111.1142
-42	110.6268
-41	130.9471
-40	113.8102
-39	121.648
-38	122.9068
-37	119.093
-36	124.5956
-35	136.1765
-34	136.5078
-33	150.1653
-32	163.6266
-31	145.0073
-30	133.5399
-29	138.1065
-28	129.2658
-27	115.0961
-26	126.2063
-25	124.3391
-24	152.8305
-23	120.8083
-22	130.7517
-21	140.2358
-20	116.7119
-19	100.0589
-18	110.6592
-17	110.9811
-16	143.8917
-15	130.0673
-14	139.291
-13	152.4762
-12	159.7426
-11	179.301
-10	174.2447
-9	170.7063
-8	155.5352
-7	188.6259
-6	225.0416
-5	226.3386
-4	270.0116
-3	310.158
-2	364.694
-1	498.2577
0	8062.6108
1	498.2577
2	364.694
3	310.158
4	270.0116
5	226.3386
6	225.0416
7	188.6259
8	155.5352
9	170.7063
10	174.2447
11	179.301
12	159.7426
13	152.4762
14	139.291
15	130.0673
16	143.8917
17	110.9811
18	110.6592
19	100.0589
20	116.7119
21	140.2358
22	130.7517
23	120.8083
24	152.8305
25	124.3391
26	126.2063
27	115.0961
28	129.2658
29	138.1065
30	133.5399
31	145.0073
32	163.6266
33	150.1653
34	136.5078
35	136.1765
36	124.5956
37	119.093
38	122.9068
39	121.648
40	113.8102
41	130.9471
42	110.6268
43	111.1142
44	144.5719
45	132.1838
46	125.0787
47	111.1801
48	129.9657
49	117.4249
50	106.9574
51	109.7417
52	110.2435
53	111.8684
54	126.4989
55	116.2519
56	125.1187
57	112.2039
58	113.076
59	105.5916
60	106.5876
61	103.2394
62	95.0679
63	100.1564
64	98.9278
65	110.3785
66	113.154
67	103.7563
68	110.3134
69	104.878
70	98.2706
71	90.1245
72	100.468
73	93.2627
74	101.5614
75	100.5747
76	97.4855
77	108.1417
78	115.889
79	98.1871
80	96.3281
81	114.4071
82	93.2173
83	98.784
84	95.7932
85	94.1058
86	97.6724
87	102.0218
88	122.6562
89	110.2797
90	90.054
91	93.7762
92	87.7335
93	84.8622
94	98.093
95	94.5619
96	98.5339
97	105.7944
98	103.4325
99	101.3558
100	95.6661
101	79.4372
102	100.9183
103	82.2434
104	84.1627
105	103.0878
106	77.4101
107	93.0511
108	90.0433
109	99.8218
110	99.1257
111	99.8023
112	94.1978
113	90.9676
114	85.2521
115	87.437
116	80.3318
117	94.6864
118	102.2458
119	91.6562
120	98.6974
121	112.9214
122	104.9666
123	90.3225
124	103.0013
125	88.7734
126	104.824
127	90.8107
128	95.206
129	96.6182
130	87.9211
131	97.4394
132	95.1781
133	89.2509
134	98.0857
135	90.1994
136	98.4962
137	83.1658
138	83.8467
139	101.0184
140	90.7259
141	101.008
142	108.7571
143	103.6113
144	89.35
145	75.5298
146	81.2603
147	95.2635
148	84.4654
149	90.5461
150	87.1005
151	89.2698
152	91.1255
153	99.018
154	92.8803
155	102.7563
156	94.4801
157	78.5564
158	77.1871
159	87.0128
160	78.0081
161	76.1972
162	65.57
163	78.922
164	73.1952
165	88.6465
166	80.9959
167	80.7808
168	84.879
169	96.9114
170	99.8665
171	92.2087
172	89.9957
173	89.116
174	103.4597
175	85.2529
176	86.6361
177	92.0565
178	92.9934
179	89.1699
180	93.8036
181	90.5951
182	96.7755
183	97.187
184	88.6333
185	86.1295
186	92.696
187	92.0847
188	87.1038
189	90.0311
190	76.7078
191	82.7711
192	91.7097
193	85.9269
194	85.3069
195	81.8298
196	92.4824
197	82.5554
198	93.0671
199	92.5155
200	45.3083
