Position	Value
-200	46.2379
-199	105.4604
-198	108.1045
-197	113.6116
-196	107.227
-195	101.3518
-194	88.2522
-193	98.888
-192	90.5992
-191	93.942
-190	97.4532
-189	103.4113
-188	107.8839
-187	99.8814
-186	96.3816
-185	102.4656
-184	102.9799
-183	106.7031
-182	80.9357
-181	91.6798
-180	84.4434
-179	86.4971
-178	92.873
-177	103.5801
-176	103.606
-175	94.8016
-174	97.094
-173	83.7063
-172	92.4373
-171	83.7639
-170	102.8443
-169	98.2781
-168	97.7862
-167	91.7049
-166	108.872
-165	126.9373
-164	121.7795
-163	95.1399
-162	93.0146
-161	88.5218
-160	76.6922
-159	92.8927
-158	91.2152
-157	87.815
-156	93.0797
-155	105.5078
-154	117.1674
-153	100.4192
-152	119.7811
-151	106.0126
-150	92.3655
-149	96.8523
-148	96.1133
-147	100.8197
-146	105.9589
-145	110.9865
-144	109.2885
-143	104.4373
-142	93.233
-141	97.985
-140	90.4744
-139	101.1425
-138	97.78
-137	88.0139
-136	100.7091
-135	131.2517
-134	110.4313
-133	114.3121
-132	119.9366
-131	107.7181
-130	110.1257
-129	95.0846
-128	104.4484
-127	106.2682
-126	111.0044
-125	95.3593
-124	114.3783
-123	125.75
-122	106.6559
-121	118.252
-120	120.846
-119	106.3763
-118	99.78
-117	121.7136
-116	101.6313
-115	99.2517
-114	101.9712
-113	117.3592
-112	127.0945
-111	122.9578
-110	127.0843
-109	131.8043
-108	127.4016
-107	105.6262
-106	107.8808
-105	118.0291
-104	109.0853
-103	102.067
-102	124.1564
-101	129.9264
-100	124.9915
-99	128.4311
-98	122.3091
-97	115.4163
-96	114.9402
-95	107.5512
-94	103.9671
-93	130.2724
-92	109.0353
-91	108.4431
-90	111.4796
-89	105.2522
-88	133.4777
-87	105.7891
-86	116.0668
-85	112.3937
-84	109.3087
-83	119.5981
-82	100.9633
-81	114.497
-80	125.6116
-79	125.5491
-78	134.8304
-77	121.4417
-76	125.9196
-75	108.1289
-74	86.2529
-73	91.3975
-72	113.1171
-71	104.489
-70	97.9133
-69	98.1468
-68	124.678
-67	123.8896
-66	126.5945
-65	114.7979
-64	118.1974
-63	114.3786
-62	109.6565
-61	104.2295
-60	114.912
-59	115.1784
-58	104.8697
-57	134.8958
-56	114.0177
-55	135.8193
-54	138.7228
-53	131.8622
-52	112.5681
-51	116.1671
-50	103.788
-49	131.8647
-48	120.3665
-47	122.9287
-46	120.0364
-45	145.1603
-44	156.0318
-43	133.4516
-42	139.108
-41	124.5943
-40	122.6784
-39	115.2232
-38	118.0719
-37	129.4366
-36	138.9138
-35	138.5447
-34	164.789
-33	154.9238
-32	160.3627
-31	153.6646
-30	150.8055
-29	183.1284
-28	163.3548
-27	147.1415
-26	139.8397
-25	148.5178
-24	178.2611
-23	143.349
-22	155.5969
-21	128.7426
-20	117.7283
-19	129.7185
-18	128.0927
-17	142.58
-16	139.0695
-15	141.6377
-14	163.9415
-13	176.1753
-12	217.3369
-11	224.3906
-10	211.6739
-9	209.2146
-8	220.0112
-7	238.9766
-6	257.297
-5	278.8747
-4	341.0651
-3	389.6459
-2	429.1681
-1	632.9581
0	9998.2178
1	632.9581
2	429.1681
3	389.6459
4	341.0651
5	278.8747
6	257.297
7	238.9766
8	220.0112
9	209.2146
10	211.6739
11	224.3906
12	217.3369
13	176.1753
14	163.9415
15	141.6377
16	139.0695
17	142.58
18	128.0927
19	129.7185
20	117.7283
21	128.7426
22	155.5969
23	143.349
24	178.2611
25	148.5178
26	139.8397
27	147.1415
28	163.3548
29	183.1284
30	150.8055
31	153.6646
32	160.3627
33	154.9238
34	164.789
35	138.5447
36	138.9138
37	129.4366
38	118.0719
39	115.2232
40	122.6784
41	124.5943
42	139.108
43	133.4516
44	156.0318
45	145.1603
46	120.0364
47	122.9287
48	120.3665
49	131.8647
50	103.788
51	116.1671
52	112.5681
53	131.8622
54	138.7228
55	135.8193
56	114.0177
57	134.8958
58	104.8697
59	115.1784
60	114.912
61	104.2295
62	109.6565
63	114.3786
64	118.1974
65	114.7979
66	126.5945
67	123.8896
68	124.678
69	98.1468
70	97.9133
71	104.489
72	113.1171
73	91.3975
74	86.2529
75	108.1289
76	125.9196
77	121.4417
78	134.8304
79	125.5491
80	125.6116
81	114.497
82	100.9633
83	119.5981
84	109.3087
85	112.3937
86	116.0668
87	105.7891
88	133.4777
89	105.2522
90	111.4796
91	108.4431
92	109.0353
93	130.2724
94	103.9671
95	107.5512
96	114.9402
97	115.4163
98	122.3091
99	128.4311
100	124.9915
101	129.9264
102	124.1564
103	102.067
104	109.0853
105	118.0291
106	107.8808
107	105.6262
108	127.4016
109	131.8043
110	127.0843
111	122.9578
112	127.0945
113	117.3592
114	101.9712
115	99.2517
116	101.6313
117	121.7136
118	99.78
119	106.3763
120	120.846
121	118.252
122	106.6559
123	125.75
124	114.3783
125	95.3593
126	111.0044
127	106.2682
128	104.4484
129	95.0846
130	110.1257
131	107.7181
132	119.9366
133	114.3121
134	110.4313
135	131.2517
136	100.7091
137	88.0139
138	97.78
139	101.1425
140	90.4744
141	97.985
142	93.233
143	104.4373
144	109.2885
145	110.9865
146	105.9589
147	100.8197
148	96.1133
149	96.8523
150	92.3655
151	106.0126
152	119.7811
153	100.4192
154	117.1674
155	105.5078
156	93.0797
157	87.815
158	91.2152
159	92.8927
160	76.6922
161	88.5218
162	93.0146
163	95.1399
164	121.7795
165	126.9373
166	108.872
167	91.7049
168	97.7862
169	98.2781
170	102.8443
171	83.7639
172	92.4373
173	83.7063
174	97.094
175	94.8016
176	103.606
177	103.5801
178	92.873
179	86.4971
180	84.4434
181	91.6798
182	80.9357
183	106.7031
184	102.9799
185	102.4656
186	96.3816
187	99.8814
188	107.8839
189	103.4113
190	97.4532
191	93.942
192	90.5992
193	98.888
194	88.2522
195	101.3518
196	107.227
197	113.6116
198	108.1045
199	105.4604
200	46.2379
