Position	Value
-200	57975.2
-199	58694
-198	60674.1
-197	59126.8
-196	59132.9
-195	60469.5
-194	58308.8
-193	59089.3
-192	60756.9
-191	59798.5
-190	60609.1
-189	62191.4
-188	61491.7
-187	61486.6
-186	62240.7
-185	61460.6
-184	61223.5
-183	62153
-182	61010.4
-181	61889.6
-180	62904.9
-179	62064.8
-178	62211.7
-177	64588.9
-176	62900.8
-175	62579
-174	63794.5
-173	61140.8
-172	61300.9
-171	61564.6
-170	60117.1
-169	60091.2
-168	60853.5
-167	60053.2
-166	60862.3
-165	62011.1
-164	60310.7
-163	59557.2
-162	60095.3
-161	58174.8
-160	58100.5
-159	58849.8
-158	57244.2
-157	58462.7
-156	60317.1
-155	59415.5
-154	60762.9
-153	61809.5
-152	60114.8
-151	60159.3
-150	60717.6
-149	59338.3
-148	59916.5
-147	61802.7
-146	60779.2
-145	61686.6
-144	62883.2
-143	62461.7
-142	62436.5
-141	63416
-140	61431.5
-139	61842.1
-138	63257.3
-137	62709.1
-136	63058.7
-135	65030.2
-134	63337.9
-133	63982.3
-132	65851.8
-131	64608.4
-130	64107.2
-129	64613.3
-128	63719.7
-127	63649.9
-126	64707.5
-125	63550.4
-124	64011.4
-123	65813.2
-122	64635.8
-121	65791.7
-120	65747.4
-119	64480.5
-118	64524
-117	65221.1
-116	63196.7
-115	63938.1
-114	65395.6
-113	64838.9
-112	65148.7
-111	67190.1
-110	66638.1
-109	66077.2
-108	66865.7
-107	65661.9
-106	65932.4
-105	67412.6
-104	65542.6
-103	66043.5
-102	67731.4
-101	66898.2
-100	67222.5
-99	68844
-98	67331.6
-97	67341.9
-96	68663.9
-95	66374.9
-94	66366.4
-93	67676.1
-92	66208.7
-91	66373.7
-90	68021.8
-89	68110.6
-88	67960.1
-87	68900.7
-86	67559.2
-85	67767.7
-84	68671.8
-83	67491.1
-82	67818.2
-81	69543.1
-80	69236.8
-79	69478.7
-78	70366
-77	69930.7
-76	70192.3
-75	71410
-74	69441.1
-73	69021.7
-72	70426.8
-71	69383.2
-70	70010.9
-69	71949.4
-68	69888.8
-67	71360.5
-66	73645.7
-65	71156.5
-64	70790.4
-63	71945.6
-62	70605.9
-61	70249.3
-60	72296
-59	70815.7
-58	71663.7
-57	73789.8
-56	72928.2
-55	74142.8
-54	75808.5
-53	73674.9
-52	73662.5
-51	75176.4
-50	73069.5
-49	73496.2
-48	76360.8
-47	74940.5
-46	75934.9
-45	78673.6
-44	77513.7
-43	76966
-42	78937.4
-41	76685.2
-40	76617.7
-39	78724.5
-38	76694.3
-37	77259.7
-36	79562.5
-35	80194.7
-34	81891
-33	84643.6
-32	82772.4
-31	82483
-30	84057.7
-29	81752.7
-28	82461
-27	85422.5
-26	84894.6
-25	86479
-24	89698.6
-23	87192.2
-22	88318.6
-21	91049.6
-20	90724.5
-19	92543.1
-18	96984.5
-17	96800.7
-16	99861.4
-15	104659
-14	105276
-13	109378
-12	114825
-11	116285
-10	120343
-9	127711
-8	129678
-7	135466
-6	145094
-5	145124
-4	153862
-3	172150
-2	180863
-1	204288
0	488298
1	204288
2	180863
3	172150
4	153862
5	145124
6	145094
7	135466
8	129678
9	127711
10	120343
11	116285
12	114825
13	109378
14	105276
15	104659
16	99861.4
17	96800.7
18	96984.5
19	92543.1
20	90724.5
21	91049.6
22	88318.6
23	87192.2
24	89698.6
25	86479
26	84894.6
27	85422.5
28	82461
29	81752.7
30	84057.7
31	82483
32	82772.4
33	84643.6
34	81891
35	80194.7
36	79562.5
37	77259.7
38	76694.3
39	78724.5
40	76617.7
41	76685.2
42	78937.4
43	76966
44	77513.7
45	78673.6
46	75934.9
47	74940.5
48	76360.8
49	73496.2
50	73069.5
51	75176.4
52	73662.5
53	73674.9
54	75808.5
55	74142.8
56	72928.2
57	73789.8
58	71663.7
59	70815.7
60	72296
61	70249.3
62	70605.9
63	71945.6
64	70790.4
65	71156.5
66	73645.7
67	71360.5
68	69888.8
69	71949.4
70	70010.9
71	69383.2
72	70426.8
73	69021.7
74	69441.1
75	71410
76	70192.3
77	69930.7
78	70366
79	69478.7
80	69236.8
81	69543.1
82	67818.2
83	67491.1
84	68671.8
85	67767.7
86	67559.2
87	68900.7
88	67960.1
89	68110.6
90	68021.8
91	66373.7
92	66208.7
93	67676.1
94	66366.4
95	66374.9
96	68663.9
97	67341.9
98	67331.6
99	68844
100	67222.5
101	66898.2
102	67731.4
103	66043.5
104	65542.6
105	67412.6
106	65932.4
107	65661.9
108	66865.7
109	66077.2
110	66638.1
111	67190.1
112	65148.7
113	64838.9
114	65395.6
115	63938.1
116	63196.7
117	65221.1
118	64524
119	64480.5
120	65747.4
121	65791.7
122	64635.8
123	65813.2
124	64011.4
125	63550.4
126	64707.5
127	63649.9
128	63719.7
129	64613.3
130	64107.2
131	64608.4
132	65851.8
133	63982.3
134	63337.9
135	65030.2
136	63058.7
137	62709.1
138	63257.3
139	61842.1
140	61431.5
141	63416
142	62436.5
143	62461.7
144	62883.2
145	61686.6
146	60779.2
147	61802.7
148	59916.5
149	59338.3
150	60717.6
151	60159.3
152	60114.8
153	61809.5
154	60762.9
155	59415.5
156	60317.1
157	58462.7
158	57244.2
159	58849.8
160	58100.5
161	58174.8
162	60095.3
163	59557.2
164	60310.7
165	62011.1
166	60862.3
167	60053.2
168	60853.5
169	60091.2
170	60117.1
171	61564.6
172	61300.9
173	61140.8
174	63794.5
175	62579
176	62900.8
177	64588.9
178	62211.7
179	62064.8
180	62904.9
181	61889.6
182	61010.4
183	62153
184	61223.5
185	61460.6
186	62240.7
187	61486.6
188	61491.7
189	62191.4
190	60609.1
191	59798.5
192	60756.9
193	59089.3
194	58308.8
195	60469.5
196	59132.9
197	59126.8
198	60674.1
199	58694
200	57975.2
