Position	Value
-200	142049
-199	141818
-198	142491
-197	141858
-196	142471
-195	143353
-194	143258
-193	143597
-192	144008
-191	143103
-190	143666
-189	145087
-188	143731
-187	143897
-186	145224
-185	145205
-184	143946
-183	145769
-182	143515
-181	145512
-180	143918
-179	145232
-178	145415
-177	145276
-176	145512
-175	144939
-174	144572
-173	144251
-172	143408
-171	144633
-170	144197
-169	142509
-168	143431
-167	142691
-166	143258
-165	144414
-164	143806
-163	143933
-162	144586
-161	144891
-160	145908
-159	144714
-158	145675
-157	146448
-156	146694
-155	147051
-154	148577
-153	149723
-152	149874
-151	149099
-150	149831
-149	149407
-148	149423
-147	148943
-146	148860
-145	149517
-144	150609
-143	149746
-142	149243
-141	149764
-140	148556
-139	149971
-138	151456
-137	150777
-136	150762
-135	152503
-134	152028
-133	152400
-132	152569
-131	151541
-130	151230
-129	151221
-128	150959
-127	151406
-126	151264
-125	149977
-124	151059
-123	150921
-122	151889
-121	151072
-120	152671
-119	152804
-118	152239
-117	153518
-116	152004
-115	152770
-114	153757
-113	153466
-112	152972
-111	153884
-110	153559
-109	152886
-108	152705
-107	152488
-106	153130
-105	153184
-104	152868
-103	153492
-102	154194
-101	153365
-100	152345
-99	154126
-98	154643
-97	153240
-96	153599
-95	152114
-94	153542
-93	154499
-92	152015
-91	152766
-90	153423
-89	154589
-88	152967
-87	152004
-86	151536
-85	152021
-84	152187
-83	152106
-82	153023
-81	154687
-80	153345
-79	155523
-78	156904
-77	157330
-76	155838
-75	156071
-74	155177
-73	154095
-72	154957
-71	153304
-70	154348
-69	156125
-68	156682
-67	155226
-66	156791
-65	155880
-64	156290
-63	157265
-62	156643
-61	155742
-60	157085
-59	155562
-58	153922
-57	155132
-56	154236
-55	153847
-54	155370
-53	154793
-52	155389
-51	157805
-50	157681
-49	159383
-48	162023
-47	163305
-46	164285
-45	164215
-44	164885
-43	165256
-42	166163
-41	167287
-40	168538
-39	171121
-38	170967
-37	173378
-36	175888
-35	179777
-34	179798
-33	181643
-32	183693
-31	183836
-30	186312
-29	186312
-28	177604
-27	166699
-26	157833
-25	156159
-24	152068
-23	146920
-22	150225
-21	155504
-20	157971
-19	160408
-18	165596
-17	170662
-16	174673
-15	178750
-14	184215
-13	188791
-12	196294
-11	205030
-10	219530
-9	229264
-8	242768
-7	260762
-6	266973
-5	309433
-4	336645
-3	383203
-2	431500
-1	442746
0	1.79944e+06
1	442746
2	431500
3	383203
4	336645
5	309433
6	266973
7	260762
8	242768
9	229264
10	219530
11	205030
12	196294
13	188791
14	184215
15	178750
16	174673
17	170662
18	165596
19	160408
20	157971
21	155504
22	150225
23	146920
24	152068
25	156159
26	157833
27	166699
28	177604
29	186312
30	186312
31	183836
32	183693
33	181643
34	179798
35	179777
36	175888
37	173378
38	170967
39	171121
40	168538
41	167287
42	166163
43	165256
44	164885
45	164215
46	164285
47	163305
48	162023
49	159383
50	157681
51	157805
52	155389
53	154793
54	155370
55	153847
56	154236
57	155132
58	153922
59	155562
60	157085
61	155742
62	156643
63	157265
64	156290
65	155880
66	156791
67	155226
68	156682
69	156125
70	154348
71	153304
72	154957
73	154095
74	155177
75	156071
76	155838
77	157330
78	156904
79	155523
80	153345
81	154687
82	153023
83	152106
84	152187
85	152021
86	151536
87	152004
88	152967
89	154589
90	153423
91	152766
92	152015
93	154499
94	153542
95	152114
96	153599
97	153240
98	154643
99	154126
100	152345
101	153365
102	154194
103	153492
104	152868
105	153184
106	153130
107	152488
108	152705
109	152886
110	153559
111	153884
112	152972
113	153466
114	153757
115	152770
116	152004
117	153518
118	152239
119	152804
120	152671
121	151072
122	151889
123	150921
124	151059
125	149977
126	151264
127	151406
128	150959
129	151221
130	151230
131	151541
132	152569
133	152400
134	152028
135	152503
136	150762
137	150777
138	151456
139	149971
140	148556
141	149764
142	149243
143	149746
144	150609
145	149517
146	148860
147	148943
148	149423
149	149407
150	149831
151	149099
152	149874
153	149723
154	148577
155	147051
156	146694
157	146448
158	145675
159	144714
160	145908
161	144891
162	144586
163	143933
164	143806
165	144414
166	143258
167	142691
168	143431
169	142509
170	144197
171	144633
172	143408
173	144251
174	144572
175	144939
176	145512
177	145276
178	145415
179	145232
180	143918
181	145512
182	143515
183	145769
184	143946
185	145205
186	145224
187	143897
188	143731
189	145087
190	143666
191	143103
192	144008
193	143597
194	143258
195	143353
196	142471
197	141858
198	142491
199	141818
200	142049
