Position	Value
-200	505717
-199	505828
-198	510860
-197	507401
-196	506816
-195	511057
-194	506886
-193	508095
-192	513292
-191	508076
-190	510269
-189	513013
-188	508984
-187	509289
-186	512042
-185	508524
-184	508422
-183	512367
-182	508188
-181	508872
-180	512845
-179	508924
-178	510641
-177	517614
-176	514795
-175	515748
-174	520434
-173	516513
-172	518162
-171	519349
-170	514000
-169	514891
-168	518854
-167	514996
-166	514591
-165	519124
-164	513433
-163	514576
-162	516920
-161	513158
-160	513249
-159	517292
-158	511632
-157	515001
-156	518262
-155	515098
-154	517310
-153	522983
-152	516612
-151	518640
-150	522924
-149	518782
-148	518900
-147	522422
-146	519489
-145	521524
-144	526654
-143	521224
-142	523383
-141	528612
-140	523950
-139	525275
-138	532912
-137	529518
-136	530940
-135	538131
-134	533445
-133	534468
-132	539192
-131	534990
-130	536230
-129	541801
-128	539118
-127	542382
-126	546580
-125	543571
-124	541745
-123	548265
-122	544702
-121	545141
-120	548628
-119	544929
-118	544252
-117	549695
-116	546347
-115	548396
-114	550626
-113	547630
-112	548903
-111	557486
-110	554902
-109	556657
-108	562321
-107	557846
-106	559869
-105	563888
-104	560279
-103	560805
-102	565727
-101	561105
-100	562274
-99	569393
-98	564797
-97	567297
-96	572500
-95	569159
-94	572322
-93	578963
-92	575767
-91	579088
-90	585674
-89	582095
-88	581938
-87	587772
-86	584309
-85	584950
-84	593235
-83	588463
-82	587752
-81	595488
-80	590381
-79	592685
-78	598975
-77	594796
-76	594478
-75	602340
-74	596375
-73	598315
-72	604215
-71	600549
-70	603470
-69	610747
-68	604266
-67	607030
-66	614068
-65	610026
-64	609548
-63	615955
-62	612318
-61	611992
-60	619602
-59	615240
-58	617221
-57	626004
-56	622905
-55	626657
-54	631898
-53	624950
-52	626742
-51	634065
-50	630495
-49	633980
-48	642321
-47	637863
-46	637547
-45	644308
-44	642306
-43	644562
-42	652487
-41	648243
-40	650395
-39	659130
-38	654701
-37	657838
-36	668245
-35	672108
-34	677847
-33	689415
-32	683247
-31	682320
-30	688207
-29	684220
-28	686801
-27	697930
-26	694969
-25	698855
-24	708897
-23	703488
-22	710995
-21	728269
-20	733352
-19	748485
-18	772917
-17	785506
-16	807514
-15	834151
-14	850770
-13	872671
-12	903229
-11	925122
-10	959855
-9	1.00873e+06
-8	1.04733e+06
-7	1.10342e+06
-6	1.17685e+06
-5	1.22874e+06
-4	1.30266e+06
-3	1.42729e+06
-2	1.56738e+06
-1	1.74652e+06
0	3.40844e+06
1	1.74652e+06
2	1.56738e+06
3	1.42729e+06
4	1.30266e+06
5	1.22874e+06
6	1.17685e+06
7	1.10342e+06
8	1.04733e+06
9	1.00873e+06
10	959855
11	925122
12	903229
13	872671
14	850770
15	834151
16	807514
17	785506
18	772917
19	748485
20	733352
21	728269
22	710995
23	703488
24	708897
25	698855
26	694969
27	697930
28	686801
29	684220
30	688207
31	682320
32	683247
33	689415
34	677847
35	672108
36	668245
37	657838
38	654701
39	659130
40	650395
41	648243
42	652487
43	644562
44	642306
45	644308
46	637547
47	637863
48	642321
49	633980
50	630495
51	634065
52	626742
53	624950
54	631898
55	626657
56	622905
57	626004
58	617221
59	615240
60	619602
61	611992
62	612318
63	615955
64	609548
65	610026
66	614068
67	607030
68	604266
69	610747
70	603470
71	600549
72	604215
73	598315
74	596375
75	602340
76	594478
77	594796
78	598975
79	592685
80	590381
81	595488
82	587752
83	588463
84	593235
85	584950
86	584309
87	587772
88	581938
89	582095
90	585674
91	579088
92	575767
93	578963
94	572322
95	569159
96	572500
97	567297
98	564797
99	569393
100	562274
101	561105
102	565727
103	560805
104	560279
105	563888
106	559869
107	557846
108	562321
109	556657
110	554902
111	557486
112	548903
113	547630
114	550626
115	548396
116	546347
117	549695
118	544252
119	544929
120	548628
121	545141
122	544702
123	548265
124	541745
125	543571
126	546580
127	542382
128	539118
129	541801
130	536230
131	534990
132	539192
133	534468
134	533445
135	538131
136	530940
137	529518
138	532912
139	525275
140	523950
141	528612
142	523383
143	521224
144	526654
145	521524
146	519489
147	522422
148	518900
149	518782
150	522924
151	518640
152	516612
153	522983
154	517310
155	515098
156	518262
157	515001
158	511632
159	517292
160	513249
161	513158
162	516920
163	514576
164	513433
165	519124
166	514591
167	514996
168	518854
169	514891
170	514000
171	519349
172	518162
173	516513
174	520434
175	515748
176	514795
177	517614
178	510641
179	508924
180	512845
181	508872
182	508188
183	512367
184	508422
185	508524
186	512042
187	509289
188	508984
189	513013
190	510269
191	508076
192	513292
193	508095
194	506886
195	511057
196	506816
197	507401
198	510860
199	505828
200	505717
