Position	Value
-200	40.7494
-199	95.1598
-198	82.1874
-197	82.7345
-196	71.6568
-195	80.3537
-194	84.4349
-193	83.1996
-192	71.3309
-191	90.1532
-190	102.5243
-189	90.6134
-188	80.5006
-187	95.2198
-186	82.6837
-185	82.0366
-184	73.8019
-183	76.7795
-182	87.508
-181	84.7849
-180	78.8986
-179	86.719
-178	88.3473
-177	83.2974
-176	85.3634
-175	79.0217
-174	76.0301
-173	100.6101
-172	82.09
-171	84.6601
-170	90.2067
-169	90.6335
-168	94.954
-167	97.8225
-166	84.6895
-165	96.0594
-164	89.9231
-163	80.8385
-162	96.1607
-161	75.3502
-160	70.0005
-159	79.2662
-158	84.1982
-157	78.2179
-156	88.0308
-155	89.6832
-154	87.2806
-153	93.1964
-152	83.6506
-151	71.7443
-150	81.2811
-149	74.6589
-148	97.7669
-147	81.9323
-146	81.2275
-145	81.4845
-144	74.5394
-143	88.3498
-142	80.4569
-141	107.9715
-140	96.3312
-139	89.5985
-138	94.0945
-137	89.453
-136	104.2552
-135	104.9848
-134	105.744
-133	110.1013
-132	104.2333
-131	94.2557
-130	82.4371
-129	89.5501
-128	93.8284
-127	86.3298
-126	93.126
-125	74.0593
-124	92.6377
-123	91.0149
-122	89.0485
-121	89.5614
-120	92.1926
-119	92.8357
-118	88.45
-117	84.6722
-116	73.6861
-115	80.6732
-114	100.6723
-113	85.148
-112	81.5908
-111	104.2659
-110	99.0431
-109	102.5992
-108	103.4679
-107	94.0419
-106	91.9982
-105	88.6963
-104	89.1721
-103	93.7252
-102	104.2008
-101	83.5973
-100	96.1105
-99	100.4016
-98	103.4482
-97	90.3931
-96	85.3091
-95	109.7176
-94	91.3729
-93	95.827
-92	84.7917
-91	95.5877
-90	103.2834
-89	99.1998
-88	109.8776
-87	93.6715
-86	95.3213
-85	95.4905
-84	100.4195
-83	105.9013
-82	92.5364
-81	96.1474
-80	90.7489
-79	95.6083
-78	94.8364
-77	98.3017
-76	103.4197
-75	92.2345
-74	103.761
-73	98.9929
-72	86.5531
-71	94.1962
-70	95.0812
-69	96.6403
-68	87.4641
-67	112.5658
-66	95.2518
-65	104.1169
-64	99.5963
-63	114.8085
-62	114.7435
-61	107.4001
-60	103.5537
-59	105.0347
-58	90.0238
-57	104.8982
-56	104.588
-55	104.6771
-54	127.8264
-53	95.6753
-52	97.7897
-51	98.7289
-50	93.9234
-49	93.5945
-48	94.2206
-47	103.0339
-46	99.1612
-45	118.3589
-44	119.6795
-43	106.3116
-42	121.1319
-41	116.4017
-40	111.9796
-39	118.4582
-38	128.5028
-37	119.8747
-36	106.7489
-35	110.8463
-34	134.1888
-33	127.4076
-32	144.2441
-31	137.3909
-30	120.4962
-29	134.287
-28	145.2303
-27	111.8102
-26	125.181
-25	128.3962
-24	167.8273
-23	129.3401
-22	120.3987
-21	118.6654
-20	121.2993
-19	123.7725
-18	129.7762
-17	119.0587
-16	144.6386
-15	134.9491
-14	161.7439
-13	163.6856
-12	181.2271
-11	214.694
-10	205.331
-9	226.0638
-8	232.825
-7	244.7868
-6	276.5707
-5	318.647
-4	352.6737
-3	398.3992
-2	452.2535
-1	622.8084
0	9510.6513
1	622.8084
2	452.2535
3	398.3992
4	352.6737
5	318.647
6	276.5707
7	244.7868
8	232.825
9	226.0638
10	205.331
11	214.694
12	181.2271
13	163.6856
14	161.7439
15	134.9491
16	144.6386
17	119.0587
18	129.7762
19	123.7725
20	121.2993
21	118.6654
22	120.3987
23	129.3401
24	167.8273
25	128.3962
26	125.181
27	111.8102
28	145.2303
29	134.287
30	120.4962
31	137.3909
32	144.2441
33	127.4076
34	134.1888
35	110.8463
36	106.7489
37	119.8747
38	128.5028
39	118.4582
40	111.9796
41	116.4017
42	121.1319
43	106.3116
44	119.6795
45	118.3589
46	99.1612
47	103.0339
48	94.2206
49	93.5945
50	93.9234
51	98.7289
52	97.7897
53	95.6753
54	127.8264
55	104.6771
56	104.588
57	104.8982
58	90.0238
59	105.0347
60	103.5537
61	107.4001
62	114.7435
63	114.8085
64	99.5963
65	104.1169
66	95.2518
67	112.5658
68	87.4641
69	96.6403
70	95.0812
71	94.1962
72	86.5531
73	98.9929
74	103.761
75	92.2345
76	103.4197
77	98.3017
78	94.8364
79	95.6083
80	90.7489
81	96.1474
82	92.5364
83	105.9013
84	100.4195
85	95.4905
86	95.3213
87	93.6715
88	109.8776
89	99.1998
90	103.2834
91	95.5877
92	84.7917
93	95.827
94	91.3729
95	109.7176
96	85.3091
97	90.3931
98	103.4482
99	100.4016
100	96.1105
101	83.5973
102	104.2008
103	93.7252
104	89.1721
105	88.6963
106	91.9982
107	94.0419
108	103.4679
109	102.5992
110	99.0431
111	104.2659
112	81.5908
113	85.148
114	100.6723
115	80.6732
116	73.6861
117	84.6722
118	88.45
119	92.8357
120	92.1926
121	89.5614
122	89.0485
123	91.0149
124	92.6377
125	74.0593
126	93.126
127	86.3298
128	93.8284
129	89.5501
130	82.4371
131	94.2557
132	104.2333
133	110.1013
134	105.744
135	104.9848
136	104.2552
137	89.453
138	94.0945
139	89.5985
140	96.3312
141	107.9715
142	80.4569
143	88.3498
144	74.5394
145	81.4845
146	81.2275
147	81.9323
148	97.7669
149	74.6589
150	81.2811
151	71.7443
152	83.6506
153	93.1964
154	87.2806
155	89.6832
156	88.0308
157	78.2179
158	84.1982
159	79.2662
160	70.0005
161	75.3502
162	96.1607
163	80.8385
164	89.9231
165	96.0594
166	84.6895
167	97.8225
168	94.954
169	90.6335
170	90.2067
171	84.6601
172	82.09
173	100.6101
174	76.0301
175	79.0217
176	85.3634
177	83.2974
178	88.3473
179	86.719
180	78.8986
181	84.7849
182	87.508
183	76.7795
184	73.8019
185	82.0366
186	82.6837
187	95.2198
188	80.5006
189	90.6134
190	102.5243
191	90.1532
192	71.3309
193	83.1996
194	84.4349
195	80.3537
196	71.6568
197	82.7345
198	82.1874
199	95.1598
200	40.7494
