Position	Value
-200	15507
-199	15589.1
-198	16000.2
-197	16010
-196	15587.4
-195	15859.1
-194	15634.3
-193	15600.6
-192	16025.2
-191	16026.9
-190	16116.2
-189	16595.6
-188	16058.2
-187	16175.8
-186	16327.5
-185	16137.8
-184	16084
-183	16710.8
-182	16264.1
-181	16336.9
-180	16414.9
-179	16451.6
-178	16647
-177	16075.9
-176	16246.4
-175	16465.1
-174	16572.3
-173	16306.7
-172	16456.5
-171	16184.2
-170	16454.4
-169	16350.9
-168	16741.3
-167	16138.2
-166	16452.4
-165	16907.1
-164	16625.3
-163	16838.6
-162	17214.2
-161	17270.4
-160	16814.4
-159	17539.8
-158	16858.4
-157	16698.8
-156	17256.6
-155	17024.1
-154	17018.8
-153	17468.8
-152	17511.4
-151	17308.1
-150	17534.4
-149	17417.2
-148	17237.2
-147	17176.3
-146	17667.8
-145	17497.7
-144	17045.7
-143	17597.3
-142	17562.7
-141	17825.6
-140	17573.5
-139	17676.1
-138	17716.8
-137	17360.3
-136	17482.5
-135	17879.7
-134	17087.1
-133	17617.1
-132	17284.2
-131	17714
-130	17770.9
-129	17322.8
-128	18042.9
-127	17921.1
-126	17832.1
-125	17484.5
-124	18031
-123	17976
-122	17660
-121	17986.1
-120	17492.2
-119	17581.7
-118	17298.3
-117	18007.9
-116	17333.3
-115	17876.9
-114	17901
-113	18025.4
-112	17768.6
-111	17525.5
-110	18054.9
-109	17792.1
-108	17980.7
-107	17884.6
-106	18023.4
-105	17158.4
-104	18129.9
-103	17843.8
-102	17844.4
-101	17213.4
-100	17797.5
-99	17753.1
-98	18078.2
-97	17761.6
-96	18248.5
-95	17666
-94	17695.5
-93	17851.4
-92	17640.9
-91	17724.7
-90	17292.6
-89	17426.6
-88	17346.9
-87	17594.4
-86	17273.6
-85	17612
-84	17509.4
-83	17804.3
-82	17583.5
-81	17535.8
-80	17806.9
-79	17999.2
-78	17752.8
-77	17455
-76	18217.6
-75	18118.1
-74	18117.2
-73	17952.8
-72	17897.7
-71	18538.5
-70	18078.3
-69	17789.9
-68	18403
-67	18092.5
-66	18520.2
-65	18265.1
-64	18532
-63	18494.2
-62	18645.1
-61	18501.2
-60	18585.5
-59	18896.1
-58	18444.5
-57	18953.5
-56	18407.9
-55	18439.6
-54	18585.2
-53	18170.9
-52	18264.1
-51	17996.4
-50	18318.7
-49	17823.6
-48	18595.9
-47	18378.2
-46	18444.5
-45	18088.5
-44	18716
-43	18629.1
-42	19271.3
-41	18755.2
-40	18335.6
-39	19461.4
-38	19491
-37	19203
-36	19893.5
-35	20290.4
-34	20208.3
-33	20244.1
-32	20790.1
-31	20306.7
-30	21408.3
-29	21649.4
-28	21152.6
-27	20322.6
-26	20103.8
-25	20108.2
-24	20407.6
-23	19957.8
-22	20118.6
-21	21566.4
-20	21104.7
-19	21873.6
-18	22854.2
-17	23518.8
-16	23954.9
-15	24572.4
-14	24617.1
-13	25266
-12	27452.6
-11	26382.6
-10	28842
-9	29580.7
-8	30961.3
-7	32040.3
-6	31464.1
-5	35503.1
-4	36345.6
-3	39379.1
-2	42501.3
-1	38866.1
0	147425
1	38866.1
2	42501.3
3	39379.1
4	36345.6
5	35503.1
6	31464.1
7	32040.3
8	30961.3
9	29580.7
10	28842
11	26382.6
12	27452.6
13	25266
14	24617.1
15	24572.4
16	23954.9
17	23518.8
18	22854.2
19	21873.6
20	21104.7
21	21566.4
22	20118.6
23	19957.8
24	20407.6
25	20108.2
26	20103.8
27	20322.6
28	21152.6
29	21649.4
30	21408.3
31	20306.7
32	20790.1
33	20244.1
34	20208.3
35	20290.4
36	19893.5
37	19203
38	19491
39	19461.4
40	18335.6
41	18755.2
42	19271.3
43	18629.1
44	18716
45	18088.5
46	18444.5
47	18378.2
48	18595.9
49	17823.6
50	18318.7
51	17996.4
52	18264.1
53	18170.9
54	18585.2
55	18439.6
56	18407.9
57	18953.5
58	18444.5
59	18896.1
60	18585.5
61	18501.2
62	18645.1
63	18494.2
64	18532
65	18265.1
66	18520.2
67	18092.5
68	18403
69	17789.9
70	18078.3
71	18538.5
72	17897.7
73	17952.8
74	18117.2
75	18118.1
76	18217.6
77	17455
78	17752.8
79	17999.2
80	17806.9
81	17535.8
82	17583.5
83	17804.3
84	17509.4
85	17612
86	17273.6
87	17594.4
88	17346.9
89	17426.6
90	17292.6
91	17724.7
92	17640.9
93	17851.4
94	17695.5
95	17666
96	18248.5
97	17761.6
98	18078.2
99	17753.1
100	17797.5
101	17213.4
102	17844.4
103	17843.8
104	18129.9
105	17158.4
106	18023.4
107	17884.6
108	17980.7
109	17792.1
110	18054.9
111	17525.5
112	17768.6
113	18025.4
114	17901
115	17876.9
116	17333.3
117	18007.9
118	17298.3
119	17581.7
120	17492.2
121	17986.1
122	17660
123	17976
124	18031
125	17484.5
126	17832.1
127	17921.1
128	18042.9
129	17322.8
130	17770.9
131	17714
132	17284.2
133	17617.1
134	17087.1
135	17879.7
136	17482.5
137	17360.3
138	17716.8
139	17676.1
140	17573.5
141	17825.6
142	17562.7
143	17597.3
144	17045.7
145	17497.7
146	17667.8
147	17176.3
148	17237.2
149	17417.2
150	17534.4
151	17308.1
152	17511.4
153	17468.8
154	17018.8
155	17024.1
156	17256.6
157	16698.8
158	16858.4
159	17539.8
160	16814.4
161	17270.4
162	17214.2
163	16838.6
164	16625.3
165	16907.1
166	16452.4
167	16138.2
168	16741.3
169	16350.9
170	16454.4
171	16184.2
172	16456.5
173	16306.7
174	16572.3
175	16465.1
176	16246.4
177	16075.9
178	16647
179	16451.6
180	16414.9
181	16336.9
182	16264.1
183	16710.8
184	16084
185	16137.8
186	16327.5
187	16175.8
188	16058.2
189	16595.6
190	16116.2
191	16026.9
192	16025.2
193	15600.6
194	15634.3
195	15859.1
196	15587.4
197	16010
198	16000.2
199	15589.1
200	15507
