Position	Value
-200	28482.8
-199	28892.9
-198	28700.9
-197	28584
-196	28326.8
-195	28358.6
-194	27927.5
-193	27951.6
-192	28437
-191	28144.5
-190	28720.2
-189	28757.1
-188	28713.7
-187	29488.1
-186	29455.4
-185	29177.5
-184	28369.2
-183	29093.6
-182	28207.2
-181	28720
-180	28281.2
-179	28677.2
-178	29368
-177	29546.4
-176	29701.2
-175	29242.1
-174	29255.3
-173	28642.1
-172	28250.3
-171	28288.5
-170	27944.5
-169	28122.2
-168	28112.7
-167	28027.8
-166	28805.1
-165	29671.4
-164	28849.5
-163	28736
-162	28647.6
-161	28497.5
-160	28138
-159	28055.6
-158	28445.1
-157	28936.7
-156	29449.8
-155	29398.7
-154	30426.9
-153	30245.4
-152	30061.9
-151	29785.3
-150	29700.5
-149	29020.2
-148	29364.9
-147	29482.1
-146	29467.3
-145	29708.4
-144	30210.1
-143	30467.4
-142	29942.8
-141	29924.2
-140	28936.7
-139	29219.3
-138	29750.6
-137	29463.8
-136	30133.6
-135	30553.2
-134	30731.8
-133	31289.8
-132	31656.9
-131	31393
-130	30702.9
-129	30778.5
-128	30025.9
-127	30590.4
-126	30477.9
-125	29805.3
-124	30260.2
-123	30789.9
-122	30890.1
-121	31086.8
-120	31158.2
-119	30975.9
-118	30529.8
-117	30328
-116	29938.6
-115	30521.2
-114	30745.4
-113	30458.9
-112	31045.1
-111	31894.1
-110	31854.6
-109	31281.6
-108	31518.5
-107	31255.1
-106	31230.7
-105	30685.2
-104	30966.9
-103	31199
-102	31516.3
-101	31988.5
-100	31932.9
-99	32748.2
-98	32690.1
-97	31582.1
-96	31704
-95	31303.8
-94	31440.7
-93	31537
-92	31354.5
-91	31574.4
-90	31660.6
-89	32526.6
-88	32448.7
-87	32281.4
-86	32068.2
-85	32183.8
-84	32000.1
-83	31939.9
-82	32304.1
-81	32610.6
-80	32734.6
-79	33340.5
-78	33911.6
-77	34163.5
-76	33689.9
-75	33073.2
-74	32647.5
-73	32388.3
-72	31945.7
-71	32214.9
-70	32506.6
-69	32806.5
-68	33667
-67	33598.1
-66	34001.2
-65	34034.7
-64	33536.6
-63	33204.5
-62	33369.1
-61	32919.4
-60	33546.1
-59	32838.1
-58	33180.6
-57	33347.2
-56	33981.1
-55	33991.1
-54	34124
-53	33678.1
-52	34175.1
-51	33761.3
-50	33568.5
-49	34367.2
-48	34778.2
-47	35256.8
-46	35805.1
-45	36024.6
-44	37032.4
-43	36795.3
-42	36117.3
-41	35846.9
-40	36183.1
-39	36810.1
-38	36608
-37	37498.6
-36	38392.7
-35	39779.9
-34	39393.8
-33	40653.2
-32	40576.2
-31	40214.7
-30	41359
-29	41021.5
-28	39039.6
-27	36384.9
-26	34514.8
-25	34296
-24	33713.3
-23	32566.4
-22	33332.7
-21	34287.9
-20	34304.5
-19	34030.1
-18	35310.7
-17	36789.9
-16	38109
-15	39120.8
-14	41431.7
-13	43050.3
-12	45657.4
-11	48033.3
-10	51008.2
-9	53407.2
-8	55560.6
-7	60259.3
-6	62381.4
-5	73683.4
-4	81961.1
-3	95193
-2	109571
-1	118211
0	623233
1	118211
2	109571
3	95193
4	81961.1
5	73683.4
6	62381.4
7	60259.3
8	55560.6
9	53407.2
10	51008.2
11	48033.3
12	45657.4
13	43050.3
14	41431.7
15	39120.8
16	38109
17	36789.9
18	35310.7
19	34030.1
20	34304.5
21	34287.9
22	33332.7
23	32566.4
24	33713.3
25	34296
26	34514.8
27	36384.9
28	39039.6
29	41021.5
30	41359
31	40214.7
32	40576.2
33	40653.2
34	39393.8
35	39779.9
36	38392.7
37	37498.6
38	36608
39	36810.1
40	36183.1
41	35846.9
42	36117.3
43	36795.3
44	37032.4
45	36024.6
46	35805.1
47	35256.8
48	34778.2
49	34367.2
50	33568.5
51	33761.3
52	34175.1
53	33678.1
54	34124
55	33991.1
56	33981.1
57	33347.2
58	33180.6
59	32838.1
60	33546.1
61	32919.4
62	33369.1
63	33204.5
64	33536.6
65	34034.7
66	34001.2
67	33598.1
68	33667
69	32806.5
70	32506.6
71	32214.9
72	31945.7
73	32388.3
74	32647.5
75	33073.2
76	33689.9
77	34163.5
78	33911.6
79	33340.5
80	32734.6
81	32610.6
82	32304.1
83	31939.9
84	32000.1
85	32183.8
86	32068.2
87	32281.4
88	32448.7
89	32526.6
90	31660.6
91	31574.4
92	31354.5
93	31537
94	31440.7
95	31303.8
96	31704
97	31582.1
98	32690.1
99	32748.2
100	31932.9
101	31988.5
102	31516.3
103	31199
104	30966.9
105	30685.2
106	31230.7
107	31255.1
108	31518.5
109	31281.6
110	31854.6
111	31894.1
112	31045.1
113	30458.9
114	30745.4
115	30521.2
116	29938.6
117	30328
118	30529.8
119	30975.9
120	31158.2
121	31086.8
122	30890.1
123	30789.9
124	30260.2
125	29805.3
126	30477.9
127	30590.4
128	30025.9
129	30778.5
130	30702.9
131	31393
132	31656.9
133	31289.8
134	30731.8
135	30553.2
136	30133.6
137	29463.8
138	29750.6
139	29219.3
140	28936.7
141	29924.2
142	29942.8
143	30467.4
144	30210.1
145	29708.4
146	29467.3
147	29482.1
148	29364.9
149	29020.2
150	29700.5
151	29785.3
152	30061.9
153	30245.4
154	30426.9
155	29398.7
156	29449.8
157	28936.7
158	28445.1
159	28055.6
160	28138
161	28497.5
162	28647.6
163	28736
164	28849.5
165	29671.4
166	28805.1
167	28027.8
168	28112.7
169	28122.2
170	27944.5
171	28288.5
172	28250.3
173	28642.1
174	29255.3
175	29242.1
176	29701.2
177	29546.4
178	29368
179	28677.2
180	28281.2
181	28720
182	28207.2
183	29093.6
184	28369.2
185	29177.5
186	29455.4
187	29488.1
188	28713.7
189	28757.1
190	28720.2
191	28144.5
192	28437
193	27951.6
194	27927.5
195	28358.6
196	28326.8
197	28584
198	28700.9
199	28892.9
200	28482.8
