Position	Value
-200	114791
-199	114899
-198	117329
-197	114757
-196	115206
-195	117146
-194	114982
-193	115339
-192	117475
-191	115661
-190	116137
-189	118052
-188	116133
-187	117086
-186	118510
-185	117358
-184	116923
-183	118282
-182	116425
-181	117039
-180	118410
-179	117221
-178	117969
-177	120786
-176	119047
-175	119080
-174	120922
-173	118686
-172	118587
-171	119099
-170	116326
-169	116676
-168	118441
-167	117602
-166	117600
-165	118803
-164	116787
-163	116993
-162	117976
-161	116267
-160	115711
-159	117523
-158	115901
-157	116167
-156	118258
-155	116518
-154	117259
-153	119505
-152	117384
-151	118373
-150	120199
-149	118208
-148	117737
-147	119174
-146	118247
-145	119397
-144	120599
-143	118314
-142	118234
-141	121167
-140	118781
-139	119360
-138	122270
-137	119449
-136	121164
-135	124051
-134	121658
-133	123227
-132	124157
-131	121689
-130	122491
-129	124423
-128	122705
-127	124302
-126	125781
-125	124232
-124	124042
-123	126063
-122	124484
-121	124164
-120	125688
-119	123839
-118	124268
-117	126438
-116	124234
-115	124580
-114	126703
-113	125328
-112	126045
-111	129828
-110	128412
-109	129103
-108	130886
-107	130004
-106	129424
-105	131024
-104	129111
-103	128585
-102	130034
-101	128770
-100	128350
-99	130911
-98	130073
-97	129747
-96	132408
-95	130569
-94	131038
-93	133876
-92	132581
-91	133181
-90	135475
-89	133083
-88	132777
-87	136129
-86	133929
-85	134356
-84	137331
-83	135368
-82	134163
-81	136598
-80	134449
-79	134497
-78	136241
-77	136107
-76	135125
-75	138350
-74	135005
-73	136014
-72	138620
-71	137072
-70	135924
-69	138173
-68	136209
-67	136880
-66	139758
-65	136458
-64	136039
-63	138791
-62	137116
-61	137463
-60	140533
-59	138442
-58	138955
-57	141692
-56	139412
-55	141027
-54	143191
-53	140946
-52	141015
-51	143653
-50	141566
-49	142870
-48	145453
-47	143867
-46	144127
-45	147376
-44	145934
-43	146208
-42	149328
-41	147547
-40	147127
-39	151038
-38	148245
-37	148537
-36	152443
-35	153162
-34	154224
-33	158722
-32	156136
-31	154979
-30	157074
-29	155028
-28	155907
-27	159930
-26	158640
-25	160189
-24	163858
-23	159395
-22	158826
-21	164667
-20	165554
-19	168305
-18	176336
-17	179195
-16	183720
-15	191949
-14	196436
-13	202748
-12	213193
-11	217210
-10	226901
-9	241383
-8	251467
-7	266175
-6	289507
-5	301083
-4	321002
-3	355671
-2	393110
-1	446965
0	1.02568e+06
1	446965
2	393110
3	355671
4	321002
5	301083
6	289507
7	266175
8	251467
9	241383
10	226901
11	217210
12	213193
13	202748
14	196436
15	191949
16	183720
17	179195
18	176336
19	168305
20	165554
21	164667
22	158826
23	159395
24	163858
25	160189
26	158640
27	159930
28	155907
29	155028
30	157074
31	154979
32	156136
33	158722
34	154224
35	153162
36	152443
37	148537
38	148245
39	151038
40	147127
41	147547
42	149328
43	146208
44	145934
45	147376
46	144127
47	143867
48	145453
49	142870
50	141566
51	143653
52	141015
53	140946
54	143191
55	141027
56	139412
57	141692
58	138955
59	138442
60	140533
61	137463
62	137116
63	138791
64	136039
65	136458
66	139758
67	136880
68	136209
69	138173
70	135924
71	137072
72	138620
73	136014
74	135005
75	138350
76	135125
77	136107
78	136241
79	134497
80	134449
81	136598
82	134163
83	135368
84	137331
85	134356
86	133929
87	136129
88	132777
89	133083
90	135475
91	133181
92	132581
93	133876
94	131038
95	130569
96	132408
97	129747
98	130073
99	130911
100	128350
101	128770
102	130034
103	128585
104	129111
105	131024
106	129424
107	130004
108	130886
109	129103
110	128412
111	129828
112	126045
113	125328
114	126703
115	124580
116	124234
117	126438
118	124268
119	123839
120	125688
121	124164
122	124484
123	126063
124	124042
125	124232
126	125781
127	124302
128	122705
129	124423
130	122491
131	121689
132	124157
133	123227
134	121658
135	124051
136	121164
137	119449
138	122270
139	119360
140	118781
141	121167
142	118234
143	118314
144	120599
145	119397
146	118247
147	119174
148	117737
149	118208
150	120199
151	118373
152	117384
153	119505
154	117259
155	116518
156	118258
157	116167
158	115901
159	117523
160	115711
161	116267
162	117976
163	116993
164	116787
165	118803
166	117600
167	117602
168	118441
169	116676
170	116326
171	119099
172	118587
173	118686
174	120922
175	119080
176	119047
177	120786
178	117969
179	117221
180	118410
181	117039
182	116425
183	118282
184	116923
185	117358
186	118510
187	117086
188	116133
189	118052
190	116137
191	115661
192	117475
193	115339
194	114982
195	117146
196	115206
197	114757
198	117329
199	114899
200	114791
