Position	Value
-200	46182.4
-199	46466.5
-198	47003.6
-197	47025.5
-196	47434.6
-195	47810.5
-194	47915.6
-193	48127.1
-192	48390.7
-191	48412.4
-190	48525.5
-189	48898
-188	49017.7
-187	49647.7
-186	49741.6
-185	49693
-184	49681.6
-183	50209.4
-182	50512.7
-181	50908.7
-180	51277
-179	51631.3
-178	52031.9
-177	52431.4
-176	52784
-175	52793.1
-174	52549
-173	51836.9
-172	51812.5
-171	51871.6
-170	51590.1
-169	51712.1
-168	51975.6
-167	52013.4
-166	52268.6
-165	52923.4
-164	53163.5
-163	53459
-162	54232.8
-161	54686.4
-160	55095.1
-159	55346.8
-158	55649.1
-157	56413.1
-156	57329.5
-155	58327.3
-154	59020.5
-153	59770.6
-152	59878.6
-151	60264.9
-150	60229.8
-149	60179
-148	60785.1
-147	61244.6
-146	61692.4
-145	61802.1
-144	62286
-143	62212.1
-142	62086.5
-141	62201.6
-140	61940.7
-139	61991.1
-138	62405.5
-137	63005.5
-136	63781.4
-135	64541.2
-134	65066
-133	65551.8
-132	65967.7
-131	65460.9
-130	65523.7
-129	65573.8
-128	65476
-127	65629.4
-126	66111.6
-125	66179.1
-124	66802.8
-123	67645.7
-122	67790
-121	68880.8
-120	69635.5
-119	69797.5
-118	70126.2
-117	70664.1
-116	71054.2
-115	71353.9
-114	71948.3
-113	71886.3
-112	72190.4
-111	71984.7
-110	72360.9
-109	72107.7
-108	72982.2
-107	73046.7
-106	73608
-105	73841.4
-104	74043.8
-103	74294.9
-102	75081.9
-101	75708.7
-100	75930.6
-99	76633.7
-98	76589.3
-97	77081.9
-96	77200.4
-95	77185.1
-94	77363.7
-93	78171.6
-92	78171.7
-91	79236
-90	79814.9
-89	80730.9
-88	81381.5
-87	82461
-86	82977.4
-85	83342.9
-84	83591.8
-83	83923.9
-82	83796.8
-81	84880.5
-80	85723.3
-79	86675
-78	87527.5
-77	87594.8
-76	87715.9
-75	87939.9
-74	88058.5
-73	87938.6
-72	88324
-71	88851.8
-70	89021.2
-69	89629.9
-68	90261.6
-67	90889.8
-66	91562.2
-65	91816.3
-64	91951.9
-63	92583.5
-62	92655.2
-61	92942.9
-60	93876.8
-59	94285
-58	95098.6
-57	96432.4
-56	97082.7
-55	98721.8
-54	99576.3
-53	99332.4
-52	100545
-51	101588
-50	101411
-49	102505
-48	103221
-47	103985
-46	105369
-45	105868
-44	106016
-43	106346
-42	106520
-41	106890
-40	107117
-39	108228
-38	108690
-37	109702
-36	111324
-35	112595
-34	112955
-33	114490
-32	114813
-31	114664
-30	115541
-29	115660
-28	115207
-27	114428
-26	114412
-25	115191
-24	115031
-23	114444
-22	115054
-21	116349
-20	117515
-19	119360
-18	121510
-17	123910
-16	126002
-15	128339
-14	130434
-13	132527
-12	135948
-11	139831
-10	143179
-9	148016
-8	153076
-7	157857
-6	164515
-5	172265
-4	182825
-3	192617
-2	205446
-1	224627
0	401839
1	224627
2	205446
3	192617
4	182825
5	172265
6	164515
7	157857
8	153076
9	148016
10	143179
11	139831
12	135948
13	132527
14	130434
15	128339
16	126002
17	123910
18	121510
19	119360
20	117515
21	116349
22	115054
23	114444
24	115031
25	115191
26	114412
27	114428
28	115207
29	115660
30	115541
31	114664
32	114813
33	114490
34	112955
35	112595
36	111324
37	109702
38	108690
39	108228
40	107117
41	106890
42	106520
43	106346
44	106016
45	105868
46	105369
47	103985
48	103221
49	102505
50	101411
51	101588
52	100545
53	99332.4
54	99576.3
55	98721.8
56	97082.7
57	96432.4
58	95098.6
59	94285
60	93876.8
61	92942.9
62	92655.2
63	92583.5
64	91951.9
65	91816.3
66	91562.2
67	90889.8
68	90261.6
69	89629.9
70	89021.2
71	88851.8
72	88324
73	87938.6
74	88058.5
75	87939.9
76	87715.9
77	87594.8
78	87527.5
79	86675
80	85723.3
81	84880.5
82	83796.8
83	83923.9
84	83591.8
85	83342.9
86	82977.4
87	82461
88	81381.5
89	80730.9
90	79814.9
91	79236
92	78171.7
93	78171.6
94	77363.7
95	77185.1
96	77200.4
97	77081.9
98	76589.3
99	76633.7
100	75930.6
101	75708.7
102	75081.9
103	74294.9
104	74043.8
105	73841.4
106	73608
107	73046.7
108	72982.2
109	72107.7
110	72360.9
111	71984.7
112	72190.4
113	71886.3
114	71948.3
115	71353.9
116	71054.2
117	70664.1
118	70126.2
119	69797.5
120	69635.5
121	68880.8
122	67790
123	67645.7
124	66802.8
125	66179.1
126	66111.6
127	65629.4
128	65476
129	65573.8
130	65523.7
131	65460.9
132	65967.7
133	65551.8
134	65066
135	64541.2
136	63781.4
137	63005.5
138	62405.5
139	61991.1
140	61940.7
141	62201.6
142	62086.5
143	62212.1
144	62286
145	61802.1
146	61692.4
147	61244.6
148	60785.1
149	60179
150	60229.8
151	60264.9
152	59878.6
153	59770.6
154	59020.5
155	58327.3
156	57329.5
157	56413.1
158	55649.1
159	55346.8
160	55095.1
161	54686.4
162	54232.8
163	53459
164	53163.5
165	52923.4
166	52268.6
167	52013.4
168	51975.6
169	51712.1
170	51590.1
171	51871.6
172	51812.5
173	51836.9
174	52549
175	52793.1
176	52784
177	52431.4
178	52031.9
179	51631.3
180	51277
181	50908.7
182	50512.7
183	50209.4
184	49681.6
185	49693
186	49741.6
187	49647.7
188	49017.7
189	48898
190	48525.5
191	48412.4
192	48390.7
193	48127.1
194	47915.6
195	47810.5
196	47434.6
197	47025.5
198	47003.6
199	46466.5
200	46182.4
