Position	Value
-200	118300
-199	119034
-198	117974
-197	118050
-196	118784
-195	118913
-194	118110
-193	119232
-192	119607
-191	119402
-190	119881
-189	121383
-188	119740
-187	120947
-186	121374
-185	121495
-184	118941
-183	121741
-182	119897
-181	120733
-180	120028
-179	120522
-178	121137
-177	121343
-176	121647
-175	120880
-174	120804
-173	121568
-172	120783
-171	122597
-170	120859
-169	122053
-168	121125
-167	120263
-166	121339
-165	122219
-164	120558
-163	119530
-162	121277
-161	120716
-160	120846
-159	120199
-158	120203
-157	120698
-156	121072
-155	120338
-154	121984
-153	121759
-152	121838
-151	121972
-150	122724
-149	122419
-148	122493
-147	121947
-146	121695
-145	121811
-144	123221
-143	123111
-142	122680
-141	123022
-140	121973
-139	123980
-138	123469
-137	123971
-136	123494
-135	124376
-134	124111
-133	124510
-132	124877
-131	124268
-130	123219
-129	124520
-128	122543
-127	124486
-126	123888
-125	123717
-124	124705
-123	125316
-122	125152
-121	125758
-120	126290
-119	125761
-118	125177
-117	126945
-116	125405
-115	126648
-114	126974
-113	127409
-112	126892
-111	128579
-110	127646
-109	126958
-108	128315
-107	126963
-106	127724
-105	127536
-104	126300
-103	127182
-102	128284
-101	127223
-100	127086
-99	127548
-98	128065
-97	126052
-96	127171
-95	126201
-94	127665
-93	128187
-92	127259
-91	126383
-90	127836
-89	127167
-88	126835
-87	127027
-86	126283
-85	126303
-84	126770
-83	127176
-82	126612
-81	127218
-80	126390
-79	127023
-78	129099
-77	127747
-76	127223
-75	128866
-74	128819
-73	128713
-72	129205
-71	128727
-70	129864
-69	131906
-68	132372
-67	130197
-66	133311
-65	132721
-64	133584
-63	133586
-62	133891
-61	132750
-60	133793
-59	132612
-58	130385
-57	131643
-56	129500
-55	128098
-54	128586
-53	127559
-52	127836
-51	129051
-50	128997
-49	129702
-48	131265
-47	130981
-46	130914
-45	131946
-44	131557
-43	131792
-42	133976
-41	133375
-40	135689
-39	136964
-38	137041
-37	139397
-36	140941
-35	143439
-34	143155
-33	146203
-32	147346
-31	148433
-30	151576
-29	150908
-28	146421
-27	138427
-26	129581
-25	128062
-24	126284
-23	124306
-22	127065
-21	135445
-20	135782
-19	137073
-18	141232
-17	144153
-16	147968
-15	150726
-14	154872
-13	159361
-12	167785
-11	175196
-10	188478
-9	198604
-8	214288
-7	230489
-6	232479
-5	276702
-4	304801
-3	355791
-2	407183
-1	387643
0	1.77E+06
1	387643
2	407183
3	355791
4	304801
5	276702
6	232479
7	230489
8	214288
9	198604
10	188478
11	175196
12	167785
13	159361
14	154872
15	150726
16	147968
17	144153
18	141232
19	137073
20	135782
21	135445
22	127065
23	124306
24	126284
25	128062
26	129581
27	138427
28	146421
29	150908
30	151576
31	148433
32	147346
33	146203
34	143155
35	143439
36	140941
37	139397
38	137041
39	136964
40	135689
41	133375
42	133976
43	131792
44	131557
45	131946
46	130914
47	130981
48	131265
49	129702
50	128997
51	129051
52	127836
53	127559
54	128586
55	128098
56	129500
57	131643
58	130385
59	132612
60	133793
61	132750
62	133891
63	133586
64	133584
65	132721
66	133311
67	130197
68	132372
69	131906
70	129864
71	128727
72	129205
73	128713
74	128819
75	128866
76	127223
77	127747
78	129099
79	127023
80	126390
81	127218
82	126612
83	127176
84	126770
85	126303
86	126283
87	127027
88	126835
89	127167
90	127836
91	126383
92	127259
93	128187
94	127665
95	126201
96	127171
97	126052
98	128065
99	127548
100	127086
101	127223
102	128284
103	127182
104	126300
105	127536
106	127724
107	126963
108	128315
109	126958
110	127646
111	128579
112	126892
113	127409
114	126974
115	126648
116	125405
117	126945
118	125177
119	125761
120	126290
121	125758
122	125152
123	125316
124	124705
125	123717
126	123888
127	124486
128	122543
129	124520
130	123219
131	124268
132	124877
133	124510
134	124111
135	124376
136	123494
137	123971
138	123469
139	123980
140	121973
141	123022
142	122680
143	123111
144	123221
145	121811
146	121695
147	121947
148	122493
149	122419
150	122724
151	121972
152	121838
153	121759
154	121984
155	120338
156	121072
157	120698
158	120203
159	120199
160	120846
161	120716
162	121277
163	119530
164	120558
165	122219
166	121339
167	120263
168	121125
169	122053
170	120859
171	122597
172	120783
173	121568
174	120804
175	120880
176	121647
177	121343
178	121137
179	120522
180	120028
181	120733
182	119897
183	121741
184	118941
185	121495
186	121374
187	120947
188	119740
189	121383
190	119881
191	119402
192	119607
193	119232
194	118110
195	118913
196	118784
197	118050
198	117974
199	119034
200	118300
