Position	Value
-200	60007.6
-199	60006.8
-198	60121.9
-197	60438.3
-196	60305.2
-195	60501.2
-194	60753
-193	60735
-192	60827.7
-191	61022.4
-190	61014.7
-189	61820.2
-188	61229.9
-187	61728.8
-186	62064.9
-185	62120.8
-184	61445.3
-183	62582.2
-182	61566.7
-181	62310.8
-180	61938.1
-179	61996.2
-178	62601.3
-177	62715.8
-176	63054.6
-175	62873.7
-174	63476.6
-173	62826.3
-172	62696.7
-171	63337.7
-170	63274.9
-169	63312.4
-168	63510
-167	63765.3
-166	63980.8
-165	64378.1
-164	64262.2
-163	63952.6
-162	64336.6
-161	64168.7
-160	64549.9
-159	63940.4
-158	64656.3
-157	65262.7
-156	65395.4
-155	65500.4
-154	66188
-153	66462.7
-152	66448.7
-151	66481.6
-150	66593.2
-149	65840.8
-148	66852.6
-147	67212.3
-146	67535.6
-145	67905.4
-144	68247.7
-143	68062
-142	67810
-141	67793
-140	67216
-139	67931.3
-138	67971.7
-137	68005.8
-136	68440
-135	69113
-134	68941.2
-133	69799.8
-132	69307.5
-131	69431.1
-130	69130.4
-129	69134
-128	68605.7
-127	68797.3
-126	68947.6
-125	68559.9
-124	69175.3
-123	69338.8
-122	69338.3
-121	69092.9
-120	69978.8
-119	69866.2
-118	69178.8
-117	69594
-116	69297.8
-115	69851.2
-114	69721.6
-113	69716.9
-112	70294.2
-111	70245.3
-110	70262.8
-109	69905.6
-108	70136.5
-107	69292.3
-106	69826.7
-105	69722.3
-104	69622.5
-103	69571.8
-102	70165.9
-101	70608.1
-100	69830.5
-99	70468.5
-98	70906
-97	69934.1
-96	70559.1
-95	69727.1
-94	70668
-93	71135
-92	70399
-91	70886.8
-90	71285.7
-89	72169.4
-88	71472.9
-87	71397.6
-86	71877.8
-85	71933.1
-84	72122
-83	72144.8
-82	72440.3
-81	72924
-80	72689.2
-79	73538.8
-78	74116.6
-77	74714.1
-76	74741.9
-75	74764.5
-74	74930.8
-73	75130.8
-72	75053.9
-71	75078.3
-70	75585
-69	76395.2
-68	77221.1
-67	76699.1
-66	78016.1
-65	77920.7
-64	78160.4
-63	78528.8
-62	78348.3
-61	78295.6
-60	78835.4
-59	78079.3
-58	78420.4
-57	78853.3
-56	78760.7
-55	78301.2
-54	78474.2
-53	77726.5
-52	78221.7
-51	78422.9
-50	78401.6
-49	79167.8
-48	80152.1
-47	79979.9
-46	81047.2
-45	81374.4
-44	81572
-43	81862.1
-42	82005.3
-41	82158.6
-40	82705.5
-39	83177.8
-38	82849.6
-37	84276.1
-36	85421.8
-35	86342.5
-34	86381.5
-33	87608.7
-32	88326.2
-31	88640
-30	90613.3
-29	90641.2
-28	87096.4
-27	83988.2
-26	81514.1
-25	81080.4
-24	80640.5
-23	79706.3
-22	81307.5
-21	83215.4
-20	83463.6
-19	83854
-18	85598.3
-17	86889
-16	88184.8
-15	88972.4
-14	91178.6
-13	92614.3
-12	95034.4
-11	97141.8
-10	100508
-9	102698
-8	105289
-7	109481
-6	109613
-5	122596
-4	129422
-3	143146
-2	158074
-1	154681
0	741205
1	154681
2	158074
3	143146
4	129422
5	122596
6	109613
7	109481
8	105289
9	102698
10	100508
11	97141.8
12	95034.4
13	92614.3
14	91178.6
15	88972.4
16	88184.8
17	86889
18	85598.3
19	83854
20	83463.6
21	83215.4
22	81307.5
23	79706.3
24	80640.5
25	81080.4
26	81514.1
27	83988.2
28	87096.4
29	90641.2
30	90613.3
31	88640
32	88326.2
33	87608.7
34	86381.5
35	86342.5
36	85421.8
37	84276.1
38	82849.6
39	83177.8
40	82705.5
41	82158.6
42	82005.3
43	81862.1
44	81572
45	81374.4
46	81047.2
47	79979.9
48	80152.1
49	79167.8
50	78401.6
51	78422.9
52	78221.7
53	77726.5
54	78474.2
55	78301.2
56	78760.7
57	78853.3
58	78420.4
59	78079.3
60	78835.4
61	78295.6
62	78348.3
63	78528.8
64	78160.4
65	77920.7
66	78016.1
67	76699.1
68	77221.1
69	76395.2
70	75585
71	75078.3
72	75053.9
73	75130.8
74	74930.8
75	74764.5
76	74741.9
77	74714.1
78	74116.6
79	73538.8
80	72689.2
81	72924
82	72440.3
83	72144.8
84	72122
85	71933.1
86	71877.8
87	71397.6
88	71472.9
89	72169.4
90	71285.7
91	70886.8
92	70399
93	71135
94	70668
95	69727.1
96	70559.1
97	69934.1
98	70906
99	70468.5
100	69830.5
101	70608.1
102	70165.9
103	69571.8
104	69622.5
105	69722.3
106	69826.7
107	69292.3
108	70136.5
109	69905.6
110	70262.8
111	70245.3
112	70294.2
113	69716.9
114	69721.6
115	69851.2
116	69297.8
117	69594
118	69178.8
119	69866.2
120	69978.8
121	69092.9
122	69338.3
123	69338.8
124	69175.3
125	68559.9
126	68947.6
127	68797.3
128	68605.7
129	69134
130	69130.4
131	69431.1
132	69307.5
133	69799.8
134	68941.2
135	69113
136	68440
137	68005.8
138	67971.7
139	67931.3
140	67216
141	67793
142	67810
143	68062
144	68247.7
145	67905.4
146	67535.6
147	67212.3
148	66852.6
149	65840.8
150	66593.2
151	66481.6
152	66448.7
153	66462.7
154	66188
155	65500.4
156	65395.4
157	65262.7
158	64656.3
159	63940.4
160	64549.9
161	64168.7
162	64336.6
163	63952.6
164	64262.2
165	64378.1
166	63980.8
167	63765.3
168	63510
169	63312.4
170	63274.9
171	63337.7
172	62696.7
173	62826.3
174	63476.6
175	62873.7
176	63054.6
177	62715.8
178	62601.3
179	61996.2
180	61938.1
181	62310.8
182	61566.7
183	62582.2
184	61445.3
185	62120.8
186	62064.9
187	61728.8
188	61229.9
189	61820.2
190	61014.7
191	61022.4
192	60827.7
193	60735
194	60753
195	60501.2
196	60305.2
197	60438.3
198	60121.9
199	60006.8
200	60007.6
