Position	Value
-200	44.6747
-199	83.0918
-198	86.3501
-197	92.4329
-196	84.6302
-195	78.6578
-194	85.1209
-193	74.4034
-192	81.1443
-191	75.4482
-190	79.5441
-189	81.9355
-188	81.2701
-187	90.4106
-186	97.1026
-185	75.0291
-184	90.8921
-183	72.7613
-182	73.8356
-181	73.3818
-180	68.5485
-179	71.7104
-178	76.3742
-177	86.1105
-176	86.2133
-175	77.1166
-174	86.9902
-173	86.2851
-172	77.1976
-171	73.7872
-170	78.9381
-169	86.0454
-168	77.4578
-167	98.4542
-166	82.3909
-165	90.4427
-164	97.3062
-163	79.476
-162	78.9742
-161	79.9076
-160	63.8888
-159	83.098
-158	80.2743
-157	71.9792
-156	81.8132
-155	97.0822
-154	102.4098
-153	84.9486
-152	87.1104
-151	89.29
-150	88.8057
-149	75.6486
-148	107.1486
-147	108.654
-146	92.1723
-145	104.9498
-144	101.2954
-143	109.911
-142	103.0036
-141	100.9056
-140	102.8421
-139	101.5639
-138	107.1526
-137	100.4736
-136	99.826
-135	98.2977
-134	119.4968
-133	98.6919
-132	113.4426
-131	122.0416
-130	106.466
-129	99.9416
-128	97.9708
-127	100.3739
-126	85.1536
-125	89.9699
-124	114.6674
-123	101.7759
-122	119.9678
-121	128.5765
-120	126.2925
-119	107.746
-118	105.4358
-117	111.7196
-116	78.0041
-115	109.0142
-114	89.9094
-113	76.012
-112	91.218
-111	105.9697
-110	130.6614
-109	101.3153
-108	108.2985
-107	93.9983
-106	77.758
-105	94.0988
-104	88.913
-103	89.1998
-102	114.1662
-101	106.5898
-100	106.865
-99	121.9905
-98	105.925
-97	111.0773
-96	102.8159
-95	120.8569
-94	97.8337
-93	121.8212
-92	101.8754
-91	102.7875
-90	118.4988
-89	111.8267
-88	124.1705
-87	108.5052
-86	119.9529
-85	101.0854
-84	113.0746
-83	101.4041
-82	88.2334
-81	106.1751
-80	98.0829
-79	122.6104
-78	142.075
-77	143.056
-76	114.9266
-75	112.0524
-74	101.0627
-73	100.6961
-72	100.5159
-71	93.1561
-70	98.2541
-69	103.6413
-68	108.1753
-67	119.4437
-66	145.3312
-65	119.8028
-64	126.2288
-63	119.6643
-62	111.6116
-61	115.0649
-60	98.3551
-59	102.451
-58	109.2422
-57	147.1916
-56	145.4086
-55	150.0194
-54	152.5375
-53	150.6733
-52	124.7676
-51	120.7317
-50	128.4295
-49	139.3709
-48	125.1225
-47	118.699
-46	135.8135
-45	136.4421
-44	144.5504
-43	158.072
-42	142.8654
-41	131.1548
-40	131.631
-39	140.6515
-38	123.1938
-37	155.2609
-36	138.2965
-35	145.4637
-34	161.2442
-33	179.3683
-32	168.8574
-31	142.0218
-30	141.7286
-29	158.7087
-28	141.0433
-27	161.548
-26	132.6018
-25	132.3288
-24	189.4303
-23	167.2222
-22	180.685
-21	158.161
-20	149.434
-19	142.1195
-18	149.4198
-17	153.7648
-16	172.4726
-15	171.2759
-14	172.8323
-13	182.6909
-12	231.8741
-11	226.3307
-10	231.0802
-9	232.7455
-8	235.7316
-7	247.7904
-6	279.6563
-5	297.0894
-4	346.1204
-3	363.1462
-2	393.6897
-1	629.2585
0	8395.7837
1	629.2585
2	393.6897
3	363.1462
4	346.1204
5	297.0894
6	279.6563
7	247.7904
8	235.7316
9	232.7455
10	231.0802
11	226.3307
12	231.8741
13	182.6909
14	172.8323
15	171.2759
16	172.4726
17	153.7648
18	149.4198
19	142.1195
20	149.434
21	158.161
22	180.685
23	167.2222
24	189.4303
25	132.3288
26	132.6018
27	161.548
28	141.0433
29	158.7087
30	141.7286
31	142.0218
32	168.8574
33	179.3683
34	161.2442
35	145.4637
36	138.2965
37	155.2609
38	123.1938
39	140.6515
40	131.631
41	131.1548
42	142.8654
43	158.072
44	144.5504
45	136.4421
46	135.8135
47	118.699
48	125.1225
49	139.3709
50	128.4295
51	120.7317
52	124.7676
53	150.6733
54	152.5375
55	150.0194
56	145.4086
57	147.1916
58	109.2422
59	102.451
60	98.3551
61	115.0649
62	111.6116
63	119.6643
64	126.2288
65	119.8028
66	145.3312
67	119.4437
68	108.1753
69	103.6413
70	98.2541
71	93.1561
72	100.5159
73	100.6961
74	101.0627
75	112.0524
76	114.9266
77	143.056
78	142.075
79	122.6104
80	98.0829
81	106.1751
82	88.2334
83	101.4041
84	113.0746
85	101.0854
86	119.9529
87	108.5052
88	124.1705
89	111.8267
90	118.4988
91	102.7875
92	101.8754
93	121.8212
94	97.8337
95	120.8569
96	102.8159
97	111.0773
98	105.925
99	121.9905
100	106.865
101	106.5898
102	114.1662
103	89.1998
104	88.913
105	94.0988
106	77.758
107	93.9983
108	108.2985
109	101.3153
110	130.6614
111	105.9697
112	91.218
113	76.012
114	89.9094
115	109.0142
116	78.0041
117	111.7196
118	105.4358
119	107.746
120	126.2925
121	128.5765
122	119.9678
123	101.7759
124	114.6674
125	89.9699
126	85.1536
127	100.3739
128	97.9708
129	99.9416
130	106.466
131	122.0416
132	113.4426
133	98.6919
134	119.4968
135	98.2977
136	99.826
137	100.4736
138	107.1526
139	101.5639
140	102.8421
141	100.9056
142	103.0036
143	109.911
144	101.2954
145	104.9498
146	92.1723
147	108.654
148	107.1486
149	75.6486
150	88.8057
151	89.29
152	87.1104
153	84.9486
154	102.4098
155	97.0822
156	81.8132
157	71.9792
158	80.2743
159	83.098
160	63.8888
161	79.9076
162	78.9742
163	79.476
164	97.3062
165	90.4427
166	82.3909
167	98.4542
168	77.4578
169	86.0454
170	78.9381
171	73.7872
172	77.1976
173	86.2851
174	86.9902
175	77.1166
176	86.2133
177	86.1105
178	76.3742
179	71.7104
180	68.5485
181	73.3818
182	73.8356
183	72.7613
184	90.8921
185	75.0291
186	97.1026
187	90.4106
188	81.2701
189	81.9355
190	79.5441
191	75.4482
192	81.1443
193	74.4034
194	85.1209
195	78.6578
196	84.6302
197	92.4329
198	86.3501
199	83.0918
200	44.6747
