Position	Value
-200	125444
-199	125578
-198	125593
-197	124602
-196	125847
-195	124686
-194	125119
-193	125347
-192	123991
-191	124709
-190	124919
-189	124554
-188	124024
-187	124431
-186	126408
-185	125557
-184	124609
-183	127412
-182	124068
-181	126635
-180	125716
-179	126774
-178	124846
-177	126830
-176	125745
-175	127011
-174	127136
-173	126187
-172	126939
-171	126165
-170	126026
-169	126705
-168	126719
-167	126207
-166	126213
-165	126912
-164	126906
-163	125767
-162	127651
-161	125771
-160	126681
-159	127610
-158	126562
-157	127385
-156	127423
-155	127058
-154	127936
-153	127724
-152	128077
-151	127708
-150	128755
-149	128793
-148	128196
-147	128769
-146	128621
-145	128464
-144	128572
-143	128312
-142	128266
-141	129745
-140	129170
-139	129372
-138	130146
-137	127915
-136	130681
-135	129517
-134	129150
-133	130349
-132	130239
-131	129685
-130	130748
-129	130481
-128	130660
-127	130830
-126	130493
-125	130235
-124	131436
-123	131108
-122	131157
-121	131372
-120	131491
-119	131504
-118	131203
-117	132095
-116	130636
-115	131298
-114	131912
-113	131425
-112	131151
-111	132928
-110	132284
-109	132122
-108	133004
-107	132082
-106	132934
-105	132199
-104	130963
-103	132057
-102	131821
-101	132197
-100	131489
-99	132178
-98	130819
-97	131223
-96	131829
-95	132832
-94	131842
-93	134003
-92	132806
-91	133717
-90	133955
-89	134422
-88	133027
-87	133143
-86	133708
-85	133174
-84	134423
-83	132569
-82	134461
-81	136304
-80	133377
-79	135203
-78	135984
-77	136816
-76	136471
-75	138008
-74	137288
-73	138628
-72	136573
-71	136657
-70	135711
-69	136965
-68	138282
-67	136068
-66	137591
-65	136272
-64	136180
-63	138267
-62	137661
-61	136532
-60	137835
-59	136645
-58	135682
-57	135961
-56	132443
-55	133333
-54	132621
-53	131366
-52	132439
-51	133113
-50	133822
-49	134991
-48	136128
-47	136230
-46	138702
-45	138239
-44	138825
-43	137793
-42	140115
-41	140201
-40	141863
-39	145166
-38	146008
-37	145714
-36	147773
-35	150244
-34	150318
-33	152038
-32	154631
-31	156973
-30	161572
-29	161979
-28	155167
-27	145258
-26	132872
-25	130836
-24	129591
-23	126448
-22	124934
-21	128106
-20	128932
-19	128339
-18	131513
-17	132113
-16	135296
-15	138333
-14	140368
-13	143425
-12	150185
-11	154801
-10	162211
-9	168975
-8	176124
-7	187345
-6	177233
-5	210281
-4	225295
-3	240031
-2	255540
-1	213754
0	1.48E+06
1	213754
2	255540
3	240031
4	225295
5	210281
6	177233
7	187345
8	176124
9	168975
10	162211
11	154801
12	150185
13	143425
14	140368
15	138333
16	135296
17	132113
18	131513
19	128339
20	128932
21	128106
22	124934
23	126448
24	129591
25	130836
26	132872
27	145258
28	155167
29	161979
30	161572
31	156973
32	154631
33	152038
34	150318
35	150244
36	147773
37	145714
38	146008
39	145166
40	141863
41	140201
42	140115
43	137793
44	138825
45	138239
46	138702
47	136230
48	136128
49	134991
50	133822
51	133113
52	132439
53	131366
54	132621
55	133333
56	132443
57	135961
58	135682
59	136645
60	137835
61	136532
62	137661
63	138267
64	136180
65	136272
66	137591
67	136068
68	138282
69	136965
70	135711
71	136657
72	136573
73	138628
74	137288
75	138008
76	136471
77	136816
78	135984
79	135203
80	133377
81	136304
82	134461
83	132569
84	134423
85	133174
86	133708
87	133143
88	133027
89	134422
90	133955
91	133717
92	132806
93	134003
94	131842
95	132832
96	131829
97	131223
98	130819
99	132178
100	131489
101	132197
102	131821
103	132057
104	130963
105	132199
106	132934
107	132082
108	133004
109	132122
110	132284
111	132928
112	131151
113	131425
114	131912
115	131298
116	130636
117	132095
118	131203
119	131504
120	131491
121	131372
122	131157
123	131108
124	131436
125	130235
126	130493
127	130830
128	130660
129	130481
130	130748
131	129685
132	130239
133	130349
134	129150
135	129517
136	130681
137	127915
138	130146
139	129372
140	129170
141	129745
142	128266
143	128312
144	128572
145	128464
146	128621
147	128769
148	128196
149	128793
150	128755
151	127708
152	128077
153	127724
154	127936
155	127058
156	127423
157	127385
158	126562
159	127610
160	126681
161	125771
162	127651
163	125767
164	126906
165	126912
166	126213
167	126207
168	126719
169	126705
170	126026
171	126165
172	126939
173	126187
174	127136
175	127011
176	125745
177	126830
178	124846
179	126774
180	125716
181	126635
182	124068
183	127412
184	124609
185	125557
186	126408
187	124431
188	124024
189	124554
190	124919
191	124709
192	123991
193	125347
194	125119
195	124686
196	125847
197	124602
198	125593
199	125578
200	125444
