Position	Value
-200	3818.9722
-199	4099.6518
-198	3833.3891
-197	4160.1864
-196	4369.2274
-195	4250.5275
-194	4261.0986
-193	4748.9309
-192	4707.044
-191	4477.1035
-190	4880.5825
-189	5235.6383
-188	4752.0914
-187	4658.9977
-186	4708.1475
-185	4865.0398
-184	4618.7091
-183	4688.4247
-182	4463.1663
-181	4475.521
-180	4601.8113
-179	4586.8339
-178	4546.8373
-177	4175.6297
-176	4682.2673
-175	4454.0364
-174	4679.8635
-173	4540.8215
-172	4288.4571
-171	4248.1379
-170	4531.2769
-169	4565.1094
-168	4258.418
-167	4455.8077
-166	4669.2616
-165	4362.3037
-164	4973.1758
-163	4823.4864
-162	4584.7632
-161	4904.6042
-160	4750.447
-159	4902.5156
-158	4747.3891
-157	4834.708
-156	4355.3075
-155	4806.6651
-154	4899.908
-153	4579.1227
-152	4614.9325
-151	4877.0056
-150	4774.0825
-149	4746.3702
-148	5135.3336
-147	4935.0377
-146	4798.5622
-145	4632.886
-144	4994.8078
-143	4622.2361
-142	4635.5466
-141	4349.5681
-140	4995.9061
-139	4613.1087
-138	4271.7087
-137	4508.97
-136	4623.4166
-135	4642.0313
-134	4918.3637
-133	5149.8044
-132	5087.9494
-131	5027.2205
-130	5188.4669
-129	4942.2871
-128	5044.6443
-127	5248.2017
-126	4991.3758
-125	5273.4791
-124	4932.9357
-123	4963.7741
-122	5012.9142
-121	4909.7764
-120	4836.883
-119	4913.0135
-118	4772.6612
-117	4631.5272
-116	5060.5924
-115	4721.955
-114	4372.3143
-113	4154.4197
-112	4712.4668
-111	4628.8208
-110	4246.2182
-109	4783.291
-108	4502.972
-107	4406.7636
-106	4600.6293
-105	5065.8274
-104	4944.6705
-103	5002.9544
-102	5023.2426
-101	5246.6912
-100	5488.9483
-99	5622.9268
-98	5718.5854
-97	5838.835
-96	6294.4457
-95	5662.3833
-94	6010.9894
-93	6176.9429
-92	6395.9924
-91	5763.4848
-90	5565.4536
-89	6092.8073
-88	5995.3385
-87	5793.1802
-86	5633.988
-85	5492.4603
-84	5677.2556
-83	5098.3367
-82	5411.6717
-81	5416.1773
-80	5343.8075
-79	5385.8541
-78	5397.4387
-77	5597.8893
-76	5364.2731
-75	5450.3959
-74	5650.3422
-73	5444.7697
-72	5726.3552
-71	5911.5658
-70	5855.1211
-69	6326.9685
-68	5803.1155
-67	6476.6964
-66	6065.5345
-65	6503.0479
-64	6269.348
-63	6409.9865
-62	6685.3016
-61	6409.5326
-60	6303.4501
-59	6450.2676
-58	6317.135
-57	6378.6756
-56	5754.4844
-55	5628.9479
-54	5665.9959
-53	5306.0622
-52	5429.6572
-51	5020.3962
-50	5013.1872
-49	5174.4445
-48	5151.0018
-47	5117.9916
-46	5118.9646
-45	5387.4155
-44	4985.9411
-43	5500.5628
-42	5073.6546
-41	5011.2426
-40	5599.8266
-39	5593.947
-38	5766.8101
-37	5949.8962
-36	6711.9353
-35	6993.247
-34	6587.5115
-33	7256.7083
-32	7149.0747
-31	7231.0177
-30	7075.4905
-29	6911.0814
-28	6272.7833
-27	6146.373
-26	6007.4201
-25	6353.746
-24	5771.8917
-23	6077.9996
-22	6149.4045
-21	6273.5464
-20	6486.0188
-19	6466.8154
-18	6666.4853
-17	6606.4027
-16	6805.4205
-15	7567.1128
-14	6989.3913
-13	7906.357
-12	7942.7303
-11	8514.4517
-10	10125.9417
-9	10203.3863
-8	10269.8486
-7	11509.858
-6	11754.3457
-5	12353.5443
-4	14936.96
-3	15671.1238
-2	17764.7257
-1	18355.5719
0	81042.4162
1	18355.5719
2	17764.7257
3	15671.1238
4	14936.96
5	12353.5443
6	11754.3457
7	11509.858
8	10269.8486
9	10203.3863
10	10125.9417
11	8514.4517
12	7942.7303
13	7906.357
14	6989.3913
15	7567.1128
16	6805.4205
17	6606.4027
18	6666.4853
19	6466.8154
20	6486.0188
21	6273.5464
22	6149.4045
23	6077.9996
24	5771.8917
25	6353.746
26	6007.4201
27	6146.373
28	6272.7833
29	6911.0814
30	7075.4905
31	7231.0177
32	7149.0747
33	7256.7083
34	6587.5115
35	6993.247
36	6711.9353
37	5949.8962
38	5766.8101
39	5593.947
40	5599.8266
41	5011.2426
42	5073.6546
43	5500.5628
44	4985.9411
45	5387.4155
46	5118.9646
47	5117.9916
48	5151.0018
49	5174.4445
50	5013.1872
51	5020.3962
52	5429.6572
53	5306.0622
54	5665.9959
55	5628.9479
56	5754.4844
57	6378.6756
58	6317.135
59	6450.2676
60	6303.4501
61	6409.5326
62	6685.3016
63	6409.9865
64	6269.348
65	6503.0479
66	6065.5345
67	6476.6964
68	5803.1155
69	6326.9685
70	5855.1211
71	5911.5658
72	5726.3552
73	5444.7697
74	5650.3422
75	5450.3959
76	5364.2731
77	5597.8893
78	5397.4387
79	5385.8541
80	5343.8075
81	5416.1773
82	5411.6717
83	5098.3367
84	5677.2556
85	5492.4603
86	5633.988
87	5793.1802
88	5995.3385
89	6092.8073
90	5565.4536
91	5763.4848
92	6395.9924
93	6176.9429
94	6010.9894
95	5662.3833
96	6294.4457
97	5838.835
98	5718.5854
99	5622.9268
100	5488.9483
101	5246.6912
102	5023.2426
103	5002.9544
104	4944.6705
105	5065.8274
106	4600.6293
107	4406.7636
108	4502.972
109	4783.291
110	4246.2182
111	4628.8208
112	4712.4668
113	4154.4197
114	4372.3143
115	4721.955
116	5060.5924
117	4631.5272
118	4772.6612
119	4913.0135
120	4836.883
121	4909.7764
122	5012.9142
123	4963.7741
124	4932.9357
125	5273.4791
126	4991.3758
127	5248.2017
128	5044.6443
129	4942.2871
130	5188.4669
131	5027.2205
132	5087.9494
133	5149.8044
134	4918.3637
135	4642.0313
136	4623.4166
137	4508.97
138	4271.7087
139	4613.1087
140	4995.9061
141	4349.5681
142	4635.5466
143	4622.2361
144	4994.8078
145	4632.886
146	4798.5622
147	4935.0377
148	5135.3336
149	4746.3702
150	4774.0825
151	4877.0056
152	4614.9325
153	4579.1227
154	4899.908
155	4806.6651
156	4355.3075
157	4834.708
158	4747.3891
159	4902.5156
160	4750.447
161	4904.6042
162	4584.7632
163	4823.4864
164	4973.1758
165	4362.3037
166	4669.2616
167	4455.8077
168	4258.418
169	4565.1094
170	4531.2769
171	4248.1379
172	4288.4571
173	4540.8215
174	4679.8635
175	4454.0364
176	4682.2673
177	4175.6297
178	4546.8373
179	4586.8339
180	4601.8113
181	4475.521
182	4463.1663
183	4688.4247
184	4618.7091
185	4865.0398
186	4708.1475
187	4658.9977
188	4752.0914
189	5235.6383
190	4880.5825
191	4477.1035
192	4707.044
193	4748.9309
194	4261.0986
195	4250.5275
196	4369.2274
197	4160.1864
198	3833.3891
199	4099.6518
200	3818.9722
