Position	Value
-200	3953.4862
-199	4174.0166
-198	3747.9747
-197	4328.6117
-196	4496.5851
-195	4470.6687
-194	4459.1586
-193	4845.3237
-192	4714.825
-191	4414.219
-190	4968.6748
-189	5245.3443
-188	4816.5744
-187	4834.4783
-186	4753.5347
-185	4925.8988
-184	4690.3657
-183	4642.7801
-182	4578.2783
-181	4303.0158
-180	4639.008
-179	4368.8826
-178	4363.4776
-177	4164.0373
-176	4477.8586
-175	4293.7738
-174	4355.1277
-173	4332.875
-172	4342.6904
-171	4211.0699
-170	4425.1773
-169	4740.6026
-168	4207.2639
-167	4581.9184
-166	4665.5624
-165	4457.5804
-164	4776.8982
-163	5051.4175
-162	4691.2265
-161	5005.654
-160	4815.3322
-159	4994.745
-158	4721.1078
-157	4891.8946
-156	4506.4069
-155	4856.1858
-154	4823.8614
-153	4607.6113
-152	4853.9966
-151	4982.0408
-150	5001.0051
-149	4772.0615
-148	5245.3183
-147	4890.134
-146	4620.1796
-145	4484.6246
-144	4899.0706
-143	4595.4184
-142	4511.3345
-141	4025.3579
-140	4804.3621
-139	4407.6543
-138	4068.4743
-137	4426.5743
-136	4542.2785
-135	4451.1927
-134	4585.1368
-133	5151.023
-132	5174.7244
-131	4877.7651
-130	5386.6644
-129	4986.8886
-128	5484.0946
-127	5060.6655
-126	5113.2828
-125	5144.4695
-124	4880.4965
-123	5025.9593
-122	5283.6724
-121	4977.3694
-120	4943.3047
-119	5021.0944
-118	4866.9988
-117	4796.9242
-116	5232.2014
-115	5012.6576
-114	4447.2703
-113	4382.2374
-112	4677.9994
-111	4571.2334
-110	4532.6812
-109	4855.0004
-108	4510.4803
-107	4398.8383
-106	4598.9166
-105	5202.9641
-104	4749.4488
-103	5085.6489
-102	5110.9057
-101	5349.6446
-100	5674.576
-99	5936.9662
-98	5969.6836
-97	6063.9021
-96	6115.3862
-95	6021.0382
-94	6244.0859
-93	6063.4496
-92	6291.8594
-91	6014.9263
-90	5838.5473
-89	6135.7723
-88	6074.8726
-87	5797.0338
-86	5481.1158
-85	5521.3352
-84	5663.2355
-83	5097.2032
-82	5469.4497
-81	5580.7872
-80	5681.3374
-79	5336.2151
-78	5429.6342
-77	5678.3486
-76	5217.1182
-75	5513.9661
-74	5649.412
-73	5454.4674
-72	5840.235
-71	6002.0471
-70	5822.4519
-69	6282.668
-68	6092.405
-67	6788.3584
-66	6198.9907
-65	6607.6696
-64	6540.1152
-63	6218.1418
-62	6613.599
-61	6619.8515
-60	6208.8259
-59	6674.5547
-58	6200.1105
-57	6261.9784
-56	5593.0892
-55	5585.0008
-54	5716.3878
-53	5310.8258
-52	5709.0066
-51	5045.1224
-50	5146.3767
-49	5122.744
-48	5196.9411
-47	5072.7155
-46	5260.0093
-45	5426.2277
-44	5056.1293
-43	5502.2898
-42	5319.2185
-41	5126.7478
-40	5566.8393
-39	5709.5392
-38	6122.9665
-37	6133.772
-36	6960.3282
-35	6933.4467
-34	6646.2195
-33	7339.8473
-32	7362.9895
-31	7251.7583
-30	7326.0325
-29	6756.0428
-28	6329.6283
-27	6196.3049
-26	6208.5169
-25	6517.9574
-24	5939.1361
-23	6319.9485
-22	6488.6505
-21	6287.3535
-20	6625.7164
-19	6812.6348
-18	6744.321
-17	7171.4201
-16	7216.2867
-15	7808.6825
-14	7283.3186
-13	8216.5538
-12	8319.1028
-11	8942.3695
-10	10384.8694
-9	10522.134
-8	10844.8532
-7	12083.1333
-6	12692.3912
-5	13393.0637
-4	16180.5157
-3	16702.2278
-2	18954.2603
-1	19903.6066
0	82771.3345
1	19903.6066
2	18954.2603
3	16702.2278
4	16180.5157
5	13393.0637
6	12692.3912
7	12083.1333
8	10844.8532
9	10522.134
10	10384.8694
11	8942.3695
12	8319.1028
13	8216.5538
14	7283.3186
15	7808.6825
16	7216.2867
17	7171.4201
18	6744.321
19	6812.6348
20	6625.7164
21	6287.3535
22	6488.6505
23	6319.9485
24	5939.1361
25	6517.9574
26	6208.5169
27	6196.3049
28	6329.6283
29	6756.0428
30	7326.0325
31	7251.7583
32	7362.9895
33	7339.8473
34	6646.2195
35	6933.4467
36	6960.3282
37	6133.772
38	6122.9665
39	5709.5392
40	5566.8393
41	5126.7478
42	5319.2185
43	5502.2898
44	5056.1293
45	5426.2277
46	5260.0093
47	5072.7155
48	5196.9411
49	5122.744
50	5146.3767
51	5045.1224
52	5709.0066
53	5310.8258
54	5716.3878
55	5585.0008
56	5593.0892
57	6261.9784
58	6200.1105
59	6674.5547
60	6208.8259
61	6619.8515
62	6613.599
63	6218.1418
64	6540.1152
65	6607.6696
66	6198.9907
67	6788.3584
68	6092.405
69	6282.668
70	5822.4519
71	6002.0471
72	5840.235
73	5454.4674
74	5649.412
75	5513.9661
76	5217.1182
77	5678.3486
78	5429.6342
79	5336.2151
80	5681.3374
81	5580.7872
82	5469.4497
83	5097.2032
84	5663.2355
85	5521.3352
86	5481.1158
87	5797.0338
88	6074.8726
89	6135.7723
90	5838.5473
91	6014.9263
92	6291.8594
93	6063.4496
94	6244.0859
95	6021.0382
96	6115.3862
97	6063.9021
98	5969.6836
99	5936.9662
100	5674.576
101	5349.6446
102	5110.9057
103	5085.6489
104	4749.4488
105	5202.9641
106	4598.9166
107	4398.8383
108	4510.4803
109	4855.0004
110	4532.6812
111	4571.2334
112	4677.9994
113	4382.2374
114	4447.2703
115	5012.6576
116	5232.2014
117	4796.9242
118	4866.9988
119	5021.0944
120	4943.3047
121	4977.3694
122	5283.6724
123	5025.9593
124	4880.4965
125	5144.4695
126	5113.2828
127	5060.6655
128	5484.0946
129	4986.8886
130	5386.6644
131	4877.7651
132	5174.7244
133	5151.023
134	4585.1368
135	4451.1927
136	4542.2785
137	4426.5743
138	4068.4743
139	4407.6543
140	4804.3621
141	4025.3579
142	4511.3345
143	4595.4184
144	4899.0706
145	4484.6246
146	4620.1796
147	4890.134
148	5245.3183
149	4772.0615
150	5001.0051
151	4982.0408
152	4853.9966
153	4607.6113
154	4823.8614
155	4856.1858
156	4506.4069
157	4891.8946
158	4721.1078
159	4994.745
160	4815.3322
161	5005.654
162	4691.2265
163	5051.4175
164	4776.8982
165	4457.5804
166	4665.5624
167	4581.9184
168	4207.2639
169	4740.6026
170	4425.1773
171	4211.0699
172	4342.6904
173	4332.875
174	4355.1277
175	4293.7738
176	4477.8586
177	4164.0373
178	4363.4776
179	4368.8826
180	4639.008
181	4303.0158
182	4578.2783
183	4642.7801
184	4690.3657
185	4925.8988
186	4753.5347
187	4834.4783
188	4816.5744
189	5245.3443
190	4968.6748
191	4414.219
192	4714.825
193	4845.3237
194	4459.1586
195	4470.6687
196	4496.5851
197	4328.6117
198	3747.9747
199	4174.0166
200	3953.4862
