Position	Value
-200	2089.0369
-199	2083.4196
-198	2073.2309
-197	2079.2106
-196	2101.261
-195	2019.3688
-194	1958.1068
-193	1917.6762
-192	2043.9845
-191	2055.5609
-190	2065.2425
-189	2057.7879
-188	2050.5534
-187	2100.5811
-186	2026.166
-185	1995.4188
-184	1961.4545
-183	1978.2863
-182	1918.186
-181	1900.8581
-180	1911.0496
-179	1896.9561
-178	1934.9358
-177	1936.8076
-176	2015.8796
-175	2054.5241
-174	2058.5475
-173	2140.2341
-172	2119.487
-171	2084.1796
-170	2000.1788
-169	2014.3743
-168	2076.0982
-167	2018.6121
-166	2012.3692
-165	1984.7897
-164	1934.182
-163	1943.8778
-162	1912.6525
-161	1982.5679
-160	2061.0014
-159	2116.4398
-158	2185.6964
-157	2161.3625
-156	2198.8596
-155	2183.7876
-154	2164.146
-153	2214.6182
-152	2228.097
-151	2262.2166
-150	2189.5123
-149	2215.5626
-148	2173.2583
-147	2167.8364
-146	2158.1263
-145	2112.2164
-144	2190.5899
-143	2205.5722
-142	2284.5838
-141	2286.4543
-140	2310.8553
-139	2268.101
-138	2246.77
-137	2277.1596
-136	2279.4501
-135	2301.8383
-134	2274.4524
-133	2310.7882
-132	2314.1396
-131	2317.8472
-130	2304.7288
-129	2282.6666
-128	2282.5209
-127	2304.8822
-126	2199.7663
-125	2247.2242
-124	2236.4407
-123	2173.1005
-122	2134.0329
-121	2162.4172
-120	2141.3288
-119	2159.5175
-118	2147.9449
-117	2177.0743
-116	2194.5518
-115	2249.968
-114	2234.1435
-113	2343.8257
-112	2418.7542
-111	2402.6632
-110	2418.2061
-109	2442.5214
-108	2407.0269
-107	2326.241
-106	2259.0548
-105	2309.6706
-104	2272.7426
-103	2252.6489
-102	2315.0577
-101	2291.1871
-100	2353.0188
-99	2262.3468
-98	2290.1124
-97	2251.437
-96	2365.5653
-95	2389.0857
-94	2361.7882
-93	2398.9296
-92	2491.2727
-91	2457.0249
-90	2526.0032
-89	2539.3629
-88	2532.2835
-87	2501.8847
-86	2461.533
-85	2451.4152
-84	2419.4365
-83	2431.6198
-82	2506.1052
-81	2508.9693
-80	2541.6229
-79	2674.0602
-78	2641.3757
-77	2683.0608
-76	2739.1304
-75	2691.9697
-74	2648.5094
-73	2656.6762
-72	2827.6239
-71	2803.7305
-70	2724.2534
-69	2778.3629
-68	2849.8511
-67	2843.4207
-66	2820.9492
-65	2795.0761
-64	2798.054
-63	2741.2577
-62	2641.5634
-61	2649.5363
-60	2656.0627
-59	2645.4376
-58	2615.8283
-57	2692.484
-56	2627.9575
-55	2643.641
-54	2595.629
-53	2553.1848
-52	2600.9466
-51	2549.1032
-50	2619.2014
-49	2611.4227
-48	2654.9714
-47	2629.2016
-46	2628.6119
-45	2628.8765
-44	2689.4616
-43	2721.561
-42	2666.3694
-41	2710.5915
-40	2644.9653
-39	2604.3555
-38	2609.7038
-37	2623.1585
-36	2628.4678
-35	2753.5489
-34	2846.048
-33	2971.1205
-32	2798.2493
-31	2662.2461
-30	2689.4388
-29	2599.6435
-28	2663.5772
-27	2758.8024
-26	2776.3073
-25	2945.77
-24	3007.0911
-23	3069.3032
-22	3133.9131
-21	3084.899
-20	3220.0581
-19	3270.4831
-18	3523.4275
-17	3784.5975
-16	3973.0598
-15	4322.6694
-14	4570.134
-13	5169.0297
-12	5674.6534
-11	6345.8664
-10	6827.9931
-9	7383.1716
-8	8144.9456
-7	8713.9754
-6	9745.4523
-5	11079.969
-4	12880.5957
-3	14782.3061
-2	17221.3778
-1	21628.9425
0	69138.2661
1	21628.9425
2	17221.3778
3	14782.3061
4	12880.5957
5	11079.969
6	9745.4523
7	8713.9754
8	8144.9456
9	7383.1716
10	6827.9931
11	6345.8664
12	5674.6534
13	5169.0297
14	4570.134
15	4322.6694
16	3973.0598
17	3784.5975
18	3523.4275
19	3270.4831
20	3220.0581
21	3084.899
22	3133.9131
23	3069.3032
24	3007.0911
25	2945.77
26	2776.3073
27	2758.8024
28	2663.5772
29	2599.6435
30	2689.4388
31	2662.2461
32	2798.2493
33	2971.1205
34	2846.048
35	2753.5489
36	2628.4678
37	2623.1585
38	2609.7038
39	2604.3555
40	2644.9653
41	2710.5915
42	2666.3694
43	2721.561
44	2689.4616
45	2628.8765
46	2628.6119
47	2629.2016
48	2654.9714
49	2611.4227
50	2619.2014
51	2549.1032
52	2600.9466
53	2553.1848
54	2595.629
55	2643.641
56	2627.9575
57	2692.484
58	2615.8283
59	2645.4376
60	2656.0627
61	2649.5363
62	2641.5634
63	2741.2577
64	2798.054
65	2795.0761
66	2820.9492
67	2843.4207
68	2849.8511
69	2778.3629
70	2724.2534
71	2803.7305
72	2827.6239
73	2656.6762
74	2648.5094
75	2691.9697
76	2739.1304
77	2683.0608
78	2641.3757
79	2674.0602
80	2541.6229
81	2508.9693
82	2506.1052
83	2431.6198
84	2419.4365
85	2451.4152
86	2461.533
87	2501.8847
88	2532.2835
89	2539.3629
90	2526.0032
91	2457.0249
92	2491.2727
93	2398.9296
94	2361.7882
95	2389.0857
96	2365.5653
97	2251.437
98	2290.1124
99	2262.3468
100	2353.0188
101	2291.1871
102	2315.0577
103	2252.6489
104	2272.7426
105	2309.6706
106	2259.0548
107	2326.241
108	2407.0269
109	2442.5214
110	2418.2061
111	2402.6632
112	2418.7542
113	2343.8257
114	2234.1435
115	2249.968
116	2194.5518
117	2177.0743
118	2147.9449
119	2159.5175
120	2141.3288
121	2162.4172
122	2134.0329
123	2173.1005
124	2236.4407
125	2247.2242
126	2199.7663
127	2304.8822
128	2282.5209
129	2282.6666
130	2304.7288
131	2317.8472
132	2314.1396
133	2310.7882
134	2274.4524
135	2301.8383
136	2279.4501
137	2277.1596
138	2246.77
139	2268.101
140	2310.8553
141	2286.4543
142	2284.5838
143	2205.5722
144	2190.5899
145	2112.2164
146	2158.1263
147	2167.8364
148	2173.2583
149	2215.5626
150	2189.5123
151	2262.2166
152	2228.097
153	2214.6182
154	2164.146
155	2183.7876
156	2198.8596
157	2161.3625
158	2185.6964
159	2116.4398
160	2061.0014
161	1982.5679
162	1912.6525
163	1943.8778
164	1934.182
165	1984.7897
166	2012.3692
167	2018.6121
168	2076.0982
169	2014.3743
170	2000.1788
171	2084.1796
172	2119.487
173	2140.2341
174	2058.5475
175	2054.5241
176	2015.8796
177	1936.8076
178	1934.9358
179	1896.9561
180	1911.0496
181	1900.8581
182	1918.186
183	1978.2863
184	1961.4545
185	1995.4188
186	2026.166
187	2100.5811
188	2050.5534
189	2057.7879
190	2065.2425
191	2055.5609
192	2043.9845
193	1917.6762
194	1958.1068
195	2019.3688
196	2101.261
197	2079.2106
198	2073.2309
199	2083.4196
200	2089.0369
