Position	Value
-200	2970.3198
-199	3039.5021
-198	2917.3681
-197	2969.1449
-196	3403.0476
-195	3127.0841
-194	3424.4572
-193	3656.1041
-192	3719.6704
-191	3373.9784
-190	3683.4662
-189	3992.5631
-188	3402.0319
-187	3771.0561
-186	3551.8862
-185	3575.922
-184	3432.2171
-183	3612.1247
-182	3236.0248
-181	3166.391
-180	3060.7693
-179	3217.4355
-178	3083.5734
-177	3148.6867
-176	2946.3799
-175	3139.628
-174	3004.213
-173	2903.5754
-172	2978.4359
-171	3060.6167
-170	3306.0919
-169	3204.6805
-168	2996.8619
-167	2960.7035
-166	3293.0914
-165	3144.0535
-164	3467.5061
-163	3568.6691
-162	3321.4413
-161	3705.8105
-160	3663.0596
-159	3416.5735
-158	3488.6051
-157	3692.0341
-156	3298.1654
-155	3449.7132
-154	3512.3547
-153	3203.9253
-152	3252.3865
-151	3536.0025
-150	3894.2446
-149	3305.219
-148	3465.7129
-147	3329.4226
-146	3205.93
-145	2949.7668
-144	3543.881
-143	3206.8483
-142	3213.8381
-141	2863.3979
-140	3681.4753
-139	3180.3677
-138	3176.7278
-137	3347.4433
-136	3296.9206
-135	3207.0896
-134	3072.5567
-133	3747.298
-132	3856.7845
-131	3642.6363
-130	3889.2742
-129	4113.0879
-128	4129.7599
-127	3826.3727
-126	3997.2928
-125	4130.5682
-124	3914.1911
-123	3833.1997
-122	4079.5403
-121	3835.6991
-120	3850.0275
-119	3548.8185
-118	3629.671
-117	3538.9012
-116	4172.8658
-115	3814.6188
-114	3497.8395
-113	3154.4078
-112	3417.9685
-111	3482.8563
-110	3545.5269
-109	3416.5036
-108	3352.9531
-107	3276.0135
-106	3775.9761
-105	4110.2918
-104	3832.1206
-103	3840.865
-102	3936.3765
-101	3990.7498
-100	4176.2321
-99	4568.4208
-98	4350.8849
-97	4552.0786
-96	4804.4432
-95	4165.13
-94	4441.5864
-93	4671.0514
-92	4717.1814
-91	4190.8017
-90	3966.8914
-89	4477.1859
-88	4045.3235
-87	3725.8382
-86	3938.0645
-85	3622.2713
-84	3871.8272
-83	3756.9519
-82	3611.3742
-81	3819.1585
-80	3871.6355
-79	3462.3791
-78	3563.884
-77	3996.3934
-76	3601.5143
-75	3467.5095
-74	3778.3218
-73	3685.3055
-72	4136.3662
-71	4164.3929
-70	4296.7744
-69	4596.6124
-68	4347.2746
-67	4982.3117
-66	4582.2445
-65	4801.834
-64	4794.0579
-63	4485.4411
-62	5041.9066
-61	5263.3591
-60	4913.5274
-59	4925.5727
-58	4385.0805
-57	4598.5115
-56	4096.3344
-55	4053.9229
-54	4166.7784
-53	3623.8865
-52	3834.296
-51	3543.4913
-50	3254.5636
-49	3465.062
-48	3721.1218
-47	3584.8983
-46	3725.1196
-45	3864.1347
-44	3582.6856
-43	3710.8588
-42	3825.5696
-41	3485.5689
-40	3896.0414
-39	3920.6351
-38	4554.7015
-37	4413.4726
-36	5111.3982
-35	5181.1322
-34	5083.2531
-33	5474.2659
-32	5852.5076
-31	5501.9851
-30	5508.485
-29	5301.9205
-28	4699.2306
-27	4173.8282
-26	4389.8969
-25	4628.2918
-24	3874.2672
-23	3987.8182
-22	4065.5025
-21	3998.8613
-20	3845.9175
-19	3863.4831
-18	4071.5742
-17	4212.5779
-16	4403.6893
-15	4751.6332
-14	4396.3805
-13	4947.8683
-12	4796.1373
-11	5827.1755
-10	6840.7914
-9	7118.6218
-8	6801.3793
-7	7690.988
-6	8054.0332
-5	8507.6092
-4	10205.9883
-3	9704.6688
-2	11884.4709
-1	12757.0329
0	62483.3581
1	12757.0329
2	11884.4709
3	9704.6688
4	10205.9883
5	8507.6092
6	8054.0332
7	7690.988
8	6801.3793
9	7118.6218
10	6840.7914
11	5827.1755
12	4796.1373
13	4947.8683
14	4396.3805
15	4751.6332
16	4403.6893
17	4212.5779
18	4071.5742
19	3863.4831
20	3845.9175
21	3998.8613
22	4065.5025
23	3987.8182
24	3874.2672
25	4628.2918
26	4389.8969
27	4173.8282
28	4699.2306
29	5301.9205
30	5508.485
31	5501.9851
32	5852.5076
33	5474.2659
34	5083.2531
35	5181.1322
36	5111.3982
37	4413.4726
38	4554.7015
39	3920.6351
40	3896.0414
41	3485.5689
42	3825.5696
43	3710.8588
44	3582.6856
45	3864.1347
46	3725.1196
47	3584.8983
48	3721.1218
49	3465.062
50	3254.5636
51	3543.4913
52	3834.296
53	3623.8865
54	4166.7784
55	4053.9229
56	4096.3344
57	4598.5115
58	4385.0805
59	4925.5727
60	4913.5274
61	5263.3591
62	5041.9066
63	4485.4411
64	4794.0579
65	4801.834
66	4582.2445
67	4982.3117
68	4347.2746
69	4596.6124
70	4296.7744
71	4164.3929
72	4136.3662
73	3685.3055
74	3778.3218
75	3467.5095
76	3601.5143
77	3996.3934
78	3563.884
79	3462.3791
80	3871.6355
81	3819.1585
82	3611.3742
83	3756.9519
84	3871.8272
85	3622.2713
86	3938.0645
87	3725.8382
88	4045.3235
89	4477.1859
90	3966.8914
91	4190.8017
92	4717.1814
93	4671.0514
94	4441.5864
95	4165.13
96	4804.4432
97	4552.0786
98	4350.8849
99	4568.4208
100	4176.2321
101	3990.7498
102	3936.3765
103	3840.865
104	3832.1206
105	4110.2918
106	3775.9761
107	3276.0135
108	3352.9531
109	3416.5036
110	3545.5269
111	3482.8563
112	3417.9685
113	3154.4078
114	3497.8395
115	3814.6188
116	4172.8658
117	3538.9012
118	3629.671
119	3548.8185
120	3850.0275
121	3835.6991
122	4079.5403
123	3833.1997
124	3914.1911
125	4130.5682
126	3997.2928
127	3826.3727
128	4129.7599
129	4113.0879
130	3889.2742
131	3642.6363
132	3856.7845
133	3747.298
134	3072.5567
135	3207.0896
136	3296.9206
137	3347.4433
138	3176.7278
139	3180.3677
140	3681.4753
141	2863.3979
142	3213.8381
143	3206.8483
144	3543.881
145	2949.7668
146	3205.93
147	3329.4226
148	3465.7129
149	3305.219
150	3894.2446
151	3536.0025
152	3252.3865
153	3203.9253
154	3512.3547
155	3449.7132
156	3298.1654
157	3692.0341
158	3488.6051
159	3416.5735
160	3663.0596
161	3705.8105
162	3321.4413
163	3568.6691
164	3467.5061
165	3144.0535
166	3293.0914
167	2960.7035
168	2996.8619
169	3204.6805
170	3306.0919
171	3060.6167
172	2978.4359
173	2903.5754
174	3004.213
175	3139.628
176	2946.3799
177	3148.6867
178	3083.5734
179	3217.4355
180	3060.7693
181	3166.391
182	3236.0248
183	3612.1247
184	3432.2171
185	3575.922
186	3551.8862
187	3771.0561
188	3402.0319
189	3992.5631
190	3683.4662
191	3373.9784
192	3719.6704
193	3656.1041
194	3424.4572
195	3127.0841
196	3403.0476
197	2969.1449
198	2917.3681
199	3039.5021
200	2970.3198
