Position	Value
-200	2030.5423
-199	2109.8447
-198	2102.0028
-197	2052.4503
-196	2262.1541
-195	2292.7067
-194	2431.8458
-193	2584.6189
-192	2619.173
-191	2600.4248
-190	2518.487
-189	2768.0896
-188	2419.5126
-187	2673.091
-186	2465.7158
-185	2550.7203
-184	2276.6721
-183	2336.9155
-182	2424.6536
-181	2196.3643
-180	2269.0667
-179	2271.4815
-178	2162.4479
-177	2085.3149
-176	2161.4161
-175	2169.5208
-174	2096.7186
-173	2148.2743
-172	2314.1178
-171	2293.6283
-170	2276.9313
-169	2497.7192
-168	2170.197
-167	2359.833
-166	2365.4691
-165	2323.1461
-164	2402.6885
-163	2715.0929
-162	2378.2686
-161	2635.0127
-160	2593.1536
-159	2449.5895
-158	2541.4908
-157	2651.2299
-156	2510.8977
-155	2470.6656
-154	2379.1697
-153	2456.1706
-152	2391.9778
-151	2661.3354
-150	2827.2809
-149	2578.5626
-148	2635.2527
-147	2846.7577
-146	2408.715
-145	2443.942
-144	2675.1606
-143	2492.8008
-142	2478.0116
-141	2394.5992
-140	2500.1077
-139	2439.399
-138	2204.0983
-137	2284.3837
-136	2457.8389
-135	2191.4827
-134	2317.0206
-133	2481.0582
-132	2655.559
-131	2336.6049
-130	2798.7821
-129	2509.879
-128	2689.4056
-127	2610.3002
-126	2657.907
-125	2790.1367
-124	2391.7582
-123	2666.1078
-122	2551.8209
-121	2643.3045
-120	2558.2427
-119	2561.1275
-118	2597.7019
-117	2469.5152
-116	2948.5814
-115	2840.2057
-114	2497.8156
-113	2371.5987
-112	2543.5809
-111	2652.7829
-110	2495.454
-109	2661.0226
-108	2472.68
-107	2451.2713
-106	2607.3511
-105	2613.9779
-104	2762.506
-103	2845.8268
-102	2773.0869
-101	2792.0178
-100	3082.7273
-99	3132.597
-98	3109.2822
-97	3284.6238
-96	3511.8555
-95	2971.8869
-94	3312.5332
-93	3279.6007
-92	3325.5776
-91	3297.4184
-90	3155.2727
-89	3332.8751
-88	3321.5123
-87	3134.8013
-86	2982.3608
-85	3044.0144
-84	3029.92
-83	3015.3682
-82	2952.8418
-81	3005.8926
-80	2998.8815
-79	2966.137
-78	3059.9554
-77	3357.4917
-76	3209.3294
-75	3011.4066
-74	3175.1491
-73	3055.5115
-72	3543.1246
-71	3324.5732
-70	3360.6581
-69	3613.5886
-68	3267.2173
-67	3561.3877
-66	3478.7616
-65	3491.1834
-64	3574.5688
-63	3246.1397
-62	3505.8984
-61	3686.4145
-60	3501.0633
-59	3530.36
-58	3355.3077
-57	3545.5939
-56	3207.3283
-55	3276.9601
-54	3133.0222
-53	2886.1574
-52	2891.0284
-51	2654.7451
-50	2719.8194
-49	2767.278
-48	2988.275
-47	2830.6008
-46	2972.9815
-45	3012.6721
-44	2942.3061
-43	2674.6064
-42	2915.727
-41	2589.7206
-40	3055.2406
-39	3056.2449
-38	3172.262
-37	3294.2203
-36	3838.1032
-35	3813.3361
-34	3910.0436
-33	4220.553
-32	4184.8262
-31	3998.9207
-30	3914.5841
-29	3827.6013
-28	3179.3059
-27	3153.1696
-26	2884.8239
-25	3168.8427
-24	2826.5106
-23	3090.4759
-22	2911.4157
-21	3224.1195
-20	2964.9927
-19	3405.74
-18	3328.5593
-17	3358.1916
-16	3379.1349
-15	3765.805
-14	3649.0947
-13	3945.8542
-12	4340.6977
-11	4962.1321
-10	5681.5724
-9	5700.6071
-8	6417.663
-7	6777.9074
-6	7639.2403
-5	8185.4787
-4	9714.3304
-3	10387.5232
-2	12417.8215
-1	14408.3876
0	57078.3921
1	14408.3876
2	12417.8215
3	10387.5232
4	9714.3304
5	8185.4787
6	7639.2403
7	6777.9074
8	6417.663
9	5700.6071
10	5681.5724
11	4962.1321
12	4340.6977
13	3945.8542
14	3649.0947
15	3765.805
16	3379.1349
17	3358.1916
18	3328.5593
19	3405.74
20	2964.9927
21	3224.1195
22	2911.4157
23	3090.4759
24	2826.5106
25	3168.8427
26	2884.8239
27	3153.1696
28	3179.3059
29	3827.6013
30	3914.5841
31	3998.9207
32	4184.8262
33	4220.553
34	3910.0436
35	3813.3361
36	3838.1032
37	3294.2203
38	3172.262
39	3056.2449
40	3055.2406
41	2589.7206
42	2915.727
43	2674.6064
44	2942.3061
45	3012.6721
46	2972.9815
47	2830.6008
48	2988.275
49	2767.278
50	2719.8194
51	2654.7451
52	2891.0284
53	2886.1574
54	3133.0222
55	3276.9601
56	3207.3283
57	3545.5939
58	3355.3077
59	3530.36
60	3501.0633
61	3686.4145
62	3505.8984
63	3246.1397
64	3574.5688
65	3491.1834
66	3478.7616
67	3561.3877
68	3267.2173
69	3613.5886
70	3360.6581
71	3324.5732
72	3543.1246
73	3055.5115
74	3175.1491
75	3011.4066
76	3209.3294
77	3357.4917
78	3059.9554
79	2966.137
80	2998.8815
81	3005.8926
82	2952.8418
83	3015.3682
84	3029.92
85	3044.0144
86	2982.3608
87	3134.8013
88	3321.5123
89	3332.8751
90	3155.2727
91	3297.4184
92	3325.5776
93	3279.6007
94	3312.5332
95	2971.8869
96	3511.8555
97	3284.6238
98	3109.2822
99	3132.597
100	3082.7273
101	2792.0178
102	2773.0869
103	2845.8268
104	2762.506
105	2613.9779
106	2607.3511
107	2451.2713
108	2472.68
109	2661.0226
110	2495.454
111	2652.7829
112	2543.5809
113	2371.5987
114	2497.8156
115	2840.2057
116	2948.5814
117	2469.5152
118	2597.7019
119	2561.1275
120	2558.2427
121	2643.3045
122	2551.8209
123	2666.1078
124	2391.7582
125	2790.1367
126	2657.907
127	2610.3002
128	2689.4056
129	2509.879
130	2798.7821
131	2336.6049
132	2655.559
133	2481.0582
134	2317.0206
135	2191.4827
136	2457.8389
137	2284.3837
138	2204.0983
139	2439.399
140	2500.1077
141	2394.5992
142	2478.0116
143	2492.8008
144	2675.1606
145	2443.942
146	2408.715
147	2846.7577
148	2635.2527
149	2578.5626
150	2827.2809
151	2661.3354
152	2391.9778
153	2456.1706
154	2379.1697
155	2470.6656
156	2510.8977
157	2651.2299
158	2541.4908
159	2449.5895
160	2593.1536
161	2635.0127
162	2378.2686
163	2715.0929
164	2402.6885
165	2323.1461
166	2365.4691
167	2359.833
168	2170.197
169	2497.7192
170	2276.9313
171	2293.6283
172	2314.1178
173	2148.2743
174	2096.7186
175	2169.5208
176	2161.4161
177	2085.3149
178	2162.4479
179	2271.4815
180	2269.0667
181	2196.3643
182	2424.6536
183	2336.9155
184	2276.6721
185	2550.7203
186	2465.7158
187	2673.091
188	2419.5126
189	2768.0896
190	2518.487
191	2600.4248
192	2619.173
193	2584.6189
194	2431.8458
195	2292.7067
196	2262.1541
197	2052.4503
198	2102.0028
199	2109.8447
200	2030.5423
