Position	Value
-200	4200.67
-199	4117.47
-198	3999.96
-197	4004.93
-196	4184.95
-195	4091.15
-194	4009.42
-193	4113.03
-192	4068.29
-191	4083.66
-190	3852.19
-189	4052.21
-188	4200.49
-187	4286.89
-186	4323.72
-185	4085.48
-184	4169.28
-183	4279.25
-182	4320.52
-181	4328.4
-180	4418.74
-179	4193.98
-178	4461.28
-177	4332.31
-176	4343.29
-175	4108.23
-174	4267.53
-173	4179.62
-172	4331.79
-171	4451.08
-170	4333.57
-169	4100.75
-168	4162.78
-167	4399.89
-166	4299.34
-165	4474.93
-164	4422.63
-163	4304.41
-162	4233.37
-161	4180.54
-160	4334.73
-159	4224.49
-158	4234.04
-157	4386.97
-156	4287.14
-155	4320.55
-154	4274.98
-153	4318.45
-152	4360.44
-151	4272.56
-150	4410.86
-149	4508.05
-148	4141.09
-147	4272.83
-146	4123.05
-145	4405.61
-144	4314.34
-143	4386.79
-142	4044.79
-141	4214.64
-140	4137.07
-139	4159.01
-138	4266.62
-137	4313.44
-136	4059.49
-135	4218.81
-134	4252.09
-133	3957.03
-132	4145.98
-131	4250.45
-130	4225.83
-129	4270.48
-128	4232.13
-127	4272.96
-126	4418.44
-125	4409.35
-124	4408.76
-123	4482.61
-122	4341.02
-121	4565.16
-120	4524.15
-119	4567.33
-118	4492.17
-117	4284.81
-116	4297.35
-115	4409.8
-114	4449.43
-113	4502.76
-112	4456.07
-111	4488.63
-110	4300.64
-109	4338.09
-108	4400.85
-107	4366.32
-106	4085.14
-105	4119.45
-104	4294.72
-103	4099.95
-102	4349.6
-101	4335.17
-100	4160.26
-99	4313.64
-98	4399.56
-97	4412.08
-96	4317.7
-95	4531.73
-94	4875.66
-93	4813.45
-92	5021.07
-91	4856.76
-90	4885.52
-89	4727.4
-88	5031.72
-87	4767.75
-86	4811.62
-85	4560.65
-84	4700.28
-83	4365.28
-82	4319.04
-81	4389.76
-80	4207.16
-79	4321.97
-78	4222.71
-77	4234.6
-76	4328.83
-75	4318.23
-74	4506.97
-73	4263.56
-72	4186.46
-71	4142.92
-70	4457.32
-69	4113.49
-68	4408.87
-67	4465.19
-66	4825.15
-65	4846.27
-64	5001.56
-63	5443.14
-62	5120.7
-61	5184.73
-60	5279.41
-59	5260.44
-58	5438.63
-57	5297.69
-56	5228.09
-55	5309.69
-54	4946.63
-53	4649.09
-52	4520.53
-51	4391.66
-50	4291.15
-49	4325.16
-48	4080.32
-47	4336.76
-46	4292.33
-45	4228.95
-44	4330.18
-43	4364.06
-42	4418.22
-41	4190.85
-40	4512.59
-39	4766.67
-38	4716.93
-37	4887.35
-36	5294.44
-35	5245.18
-34	5273.79
-33	5567.06
-32	5831.91
-31	5895.39
-30	6069.97
-29	5275.37
-28	5705.7
-27	6076.9
-26	6223.51
-25	4811.58
-24	4782.95
-23	4446.45
-22	4451.65
-21	4399.33
-20	4708.6
-19	4726.29
-18	4562.18
-17	4940.3
-16	5021.25
-15	5232.55
-14	5260.73
-13	5413.02
-12	6286.87
-11	6489.85
-10	7273.29
-9	7836.38
-8	8282.29
-7	9293.83
-6	10922.5
-5	12271.1
-4	13915.3
-3	16524.4
-2	17251.3
-1	18168
0	209707
1	18168
2	17251.3
3	16524.4
4	13915.3
5	12271.1
6	10922.5
7	9293.83
8	8282.29
9	7836.38
10	7273.29
11	6489.85
12	6286.87
13	5413.02
14	5260.73
15	5232.55
16	5021.25
17	4940.3
18	4562.18
19	4726.29
20	4708.6
21	4399.33
22	4451.65
23	4446.45
24	4782.95
25	4811.58
26	6223.51
27	6076.9
28	5705.7
29	5275.37
30	6069.97
31	5895.39
32	5831.91
33	5567.06
34	5273.79
35	5245.18
36	5294.44
37	4887.35
38	4716.93
39	4766.67
40	4512.59
41	4190.85
42	4418.22
43	4364.06
44	4330.18
45	4228.95
46	4292.33
47	4336.76
48	4080.32
49	4325.16
50	4291.15
51	4391.66
52	4520.53
53	4649.09
54	4946.63
55	5309.69
56	5228.09
57	5297.69
58	5438.63
59	5260.44
60	5279.41
61	5184.73
62	5120.7
63	5443.14
64	5001.56
65	4846.27
66	4825.15
67	4465.19
68	4408.87
69	4113.49
70	4457.32
71	4142.92
72	4186.46
73	4263.56
74	4506.97
75	4318.23
76	4328.83
77	4234.6
78	4222.71
79	4321.97
80	4207.16
81	4389.76
82	4319.04
83	4365.28
84	4700.28
85	4560.65
86	4811.62
87	4767.75
88	5031.72
89	4727.4
90	4885.52
91	4856.76
92	5021.07
93	4813.45
94	4875.66
95	4531.73
96	4317.7
97	4412.08
98	4399.56
99	4313.64
100	4160.26
101	4335.17
102	4349.6
103	4099.95
104	4294.72
105	4119.45
106	4085.14
107	4366.32
108	4400.85
109	4338.09
110	4300.64
111	4488.63
112	4456.07
113	4502.76
114	4449.43
115	4409.8
116	4297.35
117	4284.81
118	4492.17
119	4567.33
120	4524.15
121	4565.16
122	4341.02
123	4482.61
124	4408.76
125	4409.35
126	4418.44
127	4272.96
128	4232.13
129	4270.48
130	4225.83
131	4250.45
132	4145.98
133	3957.03
134	4252.09
135	4218.81
136	4059.49
137	4313.44
138	4266.62
139	4159.01
140	4137.07
141	4214.64
142	4044.79
143	4386.79
144	4314.34
145	4405.61
146	4123.05
147	4272.83
148	4141.09
149	4508.05
150	4410.86
151	4272.56
152	4360.44
153	4318.45
154	4274.98
155	4320.55
156	4287.14
157	4386.97
158	4234.04
159	4224.49
160	4334.73
161	4180.54
162	4233.37
163	4304.41
164	4422.63
165	4474.93
166	4299.34
167	4399.89
168	4162.78
169	4100.75
170	4333.57
171	4451.08
172	4331.79
173	4179.62
174	4267.53
175	4108.23
176	4343.29
177	4332.31
178	4461.28
179	4193.98
180	4418.74
181	4328.4
182	4320.52
183	4279.25
184	4169.28
185	4085.48
186	4323.72
187	4286.89
188	4200.49
189	4052.21
190	3852.19
191	4083.66
192	4068.29
193	4113.03
194	4009.42
195	4091.15
196	4184.95
197	4004.93
198	3999.96
199	4117.47
200	4200.67
