Position	Value
-200	2054.1385
-199	4239.809
-198	4281.0241
-197	4126.8585
-196	4070.9884
-195	4269.5824
-194	4135.5799
-193	4269.3704
-192	4268.2796
-191	4186.635
-190	4149.1766
-189	4477.3695
-188	4482.5641
-187	4584.9127
-186	4170.5092
-185	4140.8208
-184	4295.6399
-183	4334.6763
-182	4012.2004
-181	4160.6911
-180	4281.7095
-179	4023.6229
-178	4046.9038
-177	4179.0794
-176	4122.5781
-175	3905.2342
-174	4095.2297
-173	3981.7618
-172	4138.0948
-171	4199.5257
-170	4239.9948
-169	4284.8345
-168	4260.7655
-167	4387.4318
-166	4481.7245
-165	4468.9823
-164	4362.9515
-163	4289.4132
-162	4354.3266
-161	4314.4855
-160	4538.1073
-159	4444.1679
-158	4468.9955
-157	4519.1497
-156	4531.0512
-155	4818.9266
-154	4760.3127
-153	4643.8995
-152	4549.1797
-151	4450.8938
-150	4419.692
-149	4275.3595
-148	4353.8631
-147	4313.6921
-146	4188.9036
-145	4271.0974
-144	4081.5562
-143	4373.9345
-142	4060.9606
-141	4275.657
-140	4339.4838
-139	4413.5096
-138	4378.8663
-137	4427.3655
-136	4274.0556
-135	4361.0619
-134	4377.2505
-133	4473.6694
-132	4563.1786
-131	4591.4819
-130	4606.3148
-129	4664.5774
-128	4835.1971
-127	4783.8807
-126	4996.363
-125	4798.6533
-124	4922.327
-123	4839.6714
-122	5097.3025
-121	4850.8497
-120	4765.7566
-119	4710.2846
-118	4687.3494
-117	4683.2699
-116	4590.4313
-115	4350.0377
-114	4613.3985
-113	4358.9219
-112	4281.3062
-111	4724.9235
-110	4451.7939
-109	4441.7926
-108	4336.9052
-107	4618.4619
-106	4380.1147
-105	4375.9402
-104	4642.6769
-103	4525.035
-102	4819.5326
-101	4829.7012
-100	4814.1492
-99	5161.9843
-98	5031.1827
-97	5226.5846
-96	5007.0802
-95	5271.1549
-94	5197.1864
-93	5235.7968
-92	5421.3413
-91	5113.7938
-90	5013.4783
-89	5064.2303
-88	5038.8874
-87	4882.7762
-86	4765.2423
-85	4573.4593
-84	4705.6205
-83	4270.628
-82	4162.1718
-81	4512.8419
-80	4206.9795
-79	4250.8913
-78	4347.8225
-77	4412.4588
-76	4390.1122
-75	4480.3897
-74	4238.5202
-73	4703.836
-72	4727.6548
-71	4609.096
-70	4854.1721
-69	5132.4832
-68	5197.4376
-67	5271.6979
-66	5496.6913
-65	5621.2582
-64	5895.4455
-63	5892.4743
-62	6105.3915
-61	5844.1277
-60	5807.1607
-59	5800.3392
-58	5935.8784
-57	5652.9228
-56	5291.2019
-55	5164.6532
-54	4805.4857
-53	4811.3112
-52	4491.3204
-51	4508.5755
-50	4557.5333
-49	4357.8576
-48	4460.0089
-47	4521.088
-46	4490.2272
-45	4620.7055
-44	4669.4307
-43	4753.8645
-42	4853.4594
-41	4806.1112
-40	4966.8632
-39	5276.5041
-38	5469.4436
-37	5841.739
-36	5829.9785
-35	6390.0869
-34	6197.0271
-33	6693.5829
-32	6644.7907
-31	7128.8578
-30	6896.6899
-29	6396.4992
-28	6941.6062
-27	6739.9409
-26	5419.7182
-25	5041.3006
-24	4845.0801
-23	4707.1475
-22	4909.9576
-21	4800.3729
-20	4911.7386
-19	4816.311
-18	4959.8113
-17	5116.1165
-16	5266.4754
-15	5666.1839
-14	5725.6523
-13	5993.1937
-12	7094.0893
-11	7632.924
-10	8429.9893
-9	9549.1881
-8	10285.426
-7	12178.2691
-6	14063.5362
-5	16790.0386
-4	19706.877
-3	23207.8438
-2	25687.8215
-1	30222.5929
0	343132.8666
1	30222.5929
2	25687.8215
3	23207.8438
4	19706.877
5	16790.0386
6	14063.5362
7	12178.2691
8	10285.426
9	9549.1881
10	8429.9893
11	7632.924
12	7094.0893
13	5993.1937
14	5725.6523
15	5666.1839
16	5266.4754
17	5116.1165
18	4959.8113
19	4816.311
20	4911.7386
21	4800.3729
22	4909.9576
23	4707.1475
24	4845.0801
25	5041.3006
26	5419.7182
27	6739.9409
28	6941.6062
29	6396.4992
30	6896.6899
31	7128.8578
32	6644.7907
33	6693.5829
34	6197.0271
35	6390.0869
36	5829.9785
37	5841.739
38	5469.4436
39	5276.5041
40	4966.8632
41	4806.1112
42	4853.4594
43	4753.8645
44	4669.4307
45	4620.7055
46	4490.2272
47	4521.088
48	4460.0089
49	4357.8576
50	4557.5333
51	4508.5755
52	4491.3204
53	4811.3112
54	4805.4857
55	5164.6532
56	5291.2019
57	5652.9228
58	5935.8784
59	5800.3392
60	5807.1607
61	5844.1277
62	6105.3915
63	5892.4743
64	5895.4455
65	5621.2582
66	5496.6913
67	5271.6979
68	5197.4376
69	5132.4832
70	4854.1721
71	4609.096
72	4727.6548
73	4703.836
74	4238.5202
75	4480.3897
76	4390.1122
77	4412.4588
78	4347.8225
79	4250.8913
80	4206.9795
81	4512.8419
82	4162.1718
83	4270.628
84	4705.6205
85	4573.4593
86	4765.2423
87	4882.7762
88	5038.8874
89	5064.2303
90	5013.4783
91	5113.7938
92	5421.3413
93	5235.7968
94	5197.1864
95	5271.1549
96	5007.0802
97	5226.5846
98	5031.1827
99	5161.9843
100	4814.1492
101	4829.7012
102	4819.5326
103	4525.035
104	4642.6769
105	4375.9402
106	4380.1147
107	4618.4619
108	4336.9052
109	4441.7926
110	4451.7939
111	4724.9235
112	4281.3062
113	4358.9219
114	4613.3985
115	4350.0377
116	4590.4313
117	4683.2699
118	4687.3494
119	4710.2846
120	4765.7566
121	4850.8497
122	5097.3025
123	4839.6714
124	4922.327
125	4798.6533
126	4996.363
127	4783.8807
128	4835.1971
129	4664.5774
130	4606.3148
131	4591.4819
132	4563.1786
133	4473.6694
134	4377.2505
135	4361.0619
136	4274.0556
137	4427.3655
138	4378.8663
139	4413.5096
140	4339.4838
141	4275.657
142	4060.9606
143	4373.9345
144	4081.5562
145	4271.0974
146	4188.9036
147	4313.6921
148	4353.8631
149	4275.3595
150	4419.692
151	4450.8938
152	4549.1797
153	4643.8995
154	4760.3127
155	4818.9266
156	4531.0512
157	4519.1497
158	4468.9955
159	4444.1679
160	4538.1073
161	4314.4855
162	4354.3266
163	4289.4132
164	4362.9515
165	4468.9823
166	4481.7245
167	4387.4318
168	4260.7655
169	4284.8345
170	4239.9948
171	4199.5257
172	4138.0948
173	3981.7618
174	4095.2297
175	3905.2342
176	4122.5781
177	4179.0794
178	4046.9038
179	4023.6229
180	4281.7095
181	4160.6911
182	4012.2004
183	4334.6763
184	4295.6399
185	4140.8208
186	4170.5092
187	4584.9127
188	4482.5641
189	4477.3695
190	4149.1766
191	4186.635
192	4268.2796
193	4269.3704
194	4135.5799
195	4269.5824
196	4070.9884
197	4126.8585
198	4281.0241
199	4239.809
200	2054.1385
