Position	Value
-200	33743.6448
-199	16869.4163
-198	16674.1466
-197	16882.9924
-196	16800.6341
-195	16950.1753
-194	17191.9846
-193	16892.1279
-192	16896.8713
-191	17042.123
-190	17448.6538
-189	17089.8767
-188	17363.3212
-187	17266.9899
-186	17268.8278
-185	17205.6967
-184	17469.0273
-183	17359.8269
-182	17134.9911
-181	17633.2427
-180	17279.7953
-179	16918.9239
-178	17437.3006
-177	17413.4674
-176	17199.4925
-175	17492.2913
-174	17406.3836
-173	17235.7308
-172	17909.4409
-171	17805.8206
-170	17449.6177
-169	18312.1184
-168	18119.1017
-167	17762.7917
-166	17842.6857
-165	18331.3145
-164	17920.821
-163	18041.2657
-162	18272.828
-161	17934.4156
-160	17870.3415
-159	18062.5985
-158	18140.3027
-157	18121.1098
-156	18579.6155
-155	17751.4174
-154	18418.7915
-153	17997.3408
-152	18351.3328
-151	17806.622
-150	18088.2021
-149	17901.8825
-148	17713.9638
-147	17927.5433
-146	17670.8969
-145	18144.6166
-144	17898.6372
-143	17774.5375
-142	18492.7651
-141	17854.8386
-140	18546.2756
-139	18739.4559
-138	18735.5868
-137	18612.3466
-136	19093.299
-135	18936.0452
-134	19029.4789
-133	18911.6364
-132	19493.4629
-131	19224.0463
-130	19543.4599
-129	19894.9744
-128	19751.725
-127	19641.3393
-126	20114.7656
-125	19516.9604
-124	19575.9716
-123	19685.597
-122	19316.9397
-121	19388.993
-120	19731.4229
-119	19263.4894
-118	19255.3195
-117	19181.4329
-116	18989.9349
-115	19165.1914
-114	19436.566
-113	19467.2975
-112	18742.3874
-111	19255.7973
-110	19805.8712
-109	19212.1639
-108	19654.1938
-107	19845.9511
-106	19693.8657
-105	20248.93
-104	19873.7198
-103	19749.1464
-102	20926.1627
-101	20687.7116
-100	20638.4344
-99	21170.4887
-98	21355.8726
-97	20761.0716
-96	21291.4389
-95	21140.1031
-94	21677.3475
-93	21594.1885
-92	21094.9486
-91	21119.1363
-90	20371.2199
-89	20806.9942
-88	20732.9432
-87	20185.0805
-86	20964.5028
-85	19402.9196
-84	20304.1105
-83	19128.5635
-82	19032.9264
-81	19997.8809
-80	19300.4467
-79	19738.3643
-78	20021.6526
-77	20027.9009
-76	20517.8077
-75	20921.5845
-74	20807.6611
-73	21041.075
-72	21453.1083
-71	21227.2997
-70	22626.2061
-69	22523.009
-68	22712.2963
-67	23183.7615
-66	23878.1542
-65	23435.1443
-64	23739.0598
-63	24110.2127
-62	24565.6633
-61	24468.3071
-60	23248.0428
-59	23368.1882
-58	23511.6568
-57	22608.9182
-56	21986.9314
-55	22033.552
-54	21569.0556
-53	21265.3033
-52	21319.0117
-51	21110.969
-50	20183.2009
-49	20557.1266
-48	21253.5175
-47	20790.315
-46	21099.1033
-45	21275.9523
-44	21318.9217
-43	21437.904
-42	22080.5162
-41	22392.0507
-40	22265.247
-39	22540.098
-38	24098.1883
-37	24051.4157
-36	25206.9691
-35	25940.761
-34	26498.2222
-33	27358.9772
-32	27481.9288
-31	28116.6497
-30	27427.7799
-29	25862.0667
-28	27649.186
-27	26421.1892
-26	24543.257
-25	23080.8087
-24	23056.5823
-23	22561.0168
-22	22507.1814
-21	23780.378
-20	22940.3885
-19	23405.9337
-18	23865.6145
-17	23803.6609
-16	23773.3242
-15	24104.1485
-14	24715.5595
-13	24658.7415
-12	26390.8834
-11	26899.9602
-10	26988.0346
-9	28294.4673
-8	28130.8518
-7	29557.4787
-6	30737.3853
-5	31437.6524
-4	35518.6365
-3	38042.4185
-2	31950.9692
-1	33703.2789
0	230512.4909
1	33703.2789
2	31950.9692
3	38042.4185
4	35518.6365
5	31437.6524
6	30737.3853
7	29557.4787
8	28130.8518
9	28294.4673
10	26988.0346
11	26899.9602
12	26390.8834
13	24658.7415
14	24715.5595
15	24104.1485
16	23773.3242
17	23803.6609
18	23865.6145
19	23405.9337
20	22940.3885
21	23780.378
22	22507.1814
23	22561.0168
24	23056.5823
25	23080.8087
26	24543.257
27	26421.1892
28	27649.186
29	25862.0667
30	27427.7799
31	28116.6497
32	27481.9288
33	27358.9772
34	26498.2222
35	25940.761
36	25206.9691
37	24051.4157
38	24098.1883
39	22540.098
40	22265.247
41	22392.0507
42	22080.5162
43	21437.904
44	21318.9217
45	21275.9523
46	21099.1033
47	20790.315
48	21253.5175
49	20557.1266
50	20183.2009
51	21110.969
52	21319.0117
53	21265.3033
54	21569.0556
55	22033.552
56	21986.9314
57	22608.9182
58	23511.6568
59	23368.1882
60	23248.0428
61	24468.3071
62	24565.6633
63	24110.2127
64	23739.0598
65	23435.1443
66	23878.1542
67	23183.7615
68	22712.2963
69	22523.009
70	22626.2061
71	21227.2997
72	21453.1083
73	21041.075
74	20807.6611
75	20921.5845
76	20517.8077
77	20027.9009
78	20021.6526
79	19738.3643
80	19300.4467
81	19997.8809
82	19032.9264
83	19128.5635
84	20304.1105
85	19402.9196
86	20964.5028
87	20185.0805
88	20732.9432
89	20806.9942
90	20371.2199
91	21119.1363
92	21094.9486
93	21594.1885
94	21677.3475
95	21140.1031
96	21291.4389
97	20761.0716
98	21355.8726
99	21170.4887
100	20638.4344
101	20687.7116
102	20926.1627
103	19749.1464
104	19873.7198
105	20248.93
106	19693.8657
107	19845.9511
108	19654.1938
109	19212.1639
110	19805.8712
111	19255.7973
112	18742.3874
113	19467.2975
114	19436.566
115	19165.1914
116	18989.9349
117	19181.4329
118	19255.3195
119	19263.4894
120	19731.4229
121	19388.993
122	19316.9397
123	19685.597
124	19575.9716
125	19516.9604
126	20114.7656
127	19641.3393
128	19751.725
129	19894.9744
130	19543.4599
131	19224.0463
132	19493.4629
133	18911.6364
134	19029.4789
135	18936.0452
136	19093.299
137	18612.3466
138	18735.5868
139	18739.4559
140	18546.2756
141	17854.8386
142	18492.7651
143	17774.5375
144	17898.6372
145	18144.6166
146	17670.8969
147	17927.5433
148	17713.9638
149	17901.8825
150	18088.2021
151	17806.622
152	18351.3328
153	17997.3408
154	18418.7915
155	17751.4174
156	18579.6155
157	18121.1098
158	18140.3027
159	18062.5985
160	17870.3415
161	17934.4156
162	18272.828
163	18041.2657
164	17920.821
165	18331.3145
166	17842.6857
167	17762.7917
168	18119.1017
169	18312.1184
170	17449.6177
171	17805.8206
172	17909.4409
173	17235.7308
174	17406.3836
175	17492.2913
176	17199.4925
177	17413.4674
178	17437.3006
179	16918.9239
180	17279.7953
181	17633.2427
182	17134.9911
183	17359.8269
184	17469.0273
185	17205.6967
186	17268.8278
187	17266.9899
188	17363.3212
189	17089.8767
190	17448.6538
191	17042.123
192	16896.8713
193	16892.1279
194	17191.9846
195	16950.1753
196	16800.6341
197	16882.9924
198	16674.1466
199	16869.4163
200	33743.6448
