Position	Value
-200	0.1576
-199	0.3556
-198	0.6267
-197	0.3148
-196	0.3148
-195	0.0525
-194	0.0
-193	0.0
-192	0.0
-191	0.1111
-190	0.1055
-189	0.0
-188	0.2609
-187	0.1574
-186	0.0
-185	0.0009
-184	0.0556
-183	0.0008
-182	0.0004
-181	0.002
-180	0.5021
-179	0.3203
-178	0.1049
-177	0.5804
-176	0.1605
-175	0.1049
-174	0.0
-173	0.0
-172	0.0
-171	0.0
-170	0.1111
-169	0.0
-168	0.0
-167	0.0
-166	0.2573
-165	0.2104
-164	0.1668
-163	0.1636
-162	0.0
-161	0.0
-160	0.0
-159	0.0
-158	0.1551
-157	0.0909
-156	0.1054
-155	0.4058
-154	0.378
-153	0.4314
-152	0.0
-151	0.1276
-150	0.1286
-149	0.2161
-148	0.0125
-147	0.1074
-146	0.1049
-145	0.1049
-144	1.2685
-143	0.0638
-142	0.3304
-141	0.0
-140	0.0
-139	0.0
-138	0.0526
-137	0.0
-136	0.0
-135	0.2604
-134	0.3148
-133	0.1389
-132	0.0062
-131	0.0062
-130	0.1111
-129	0.216
-128	0.1059
-127	0.0
-126	0.1049
-125	0.0
-124	0.0014
-123	0.101
-122	0.2121
-121	0.2198
-120	0.0111
-119	0.004
-118	0.0029
-117	0.1094
-116	0.1206
-115	0.0002
-114	0.0009
-113	0.0631
-112	0.0525
-111	0.197
-110	0.126
-109	0.2945
-108	0.4444
-107	0.0
-106	0.0
-105	1.0
-104	1.0
-103	3.0
-102	1.0455
-101	0.1115
-100	0.1452
-99	0.3152
-98	0.2408
-97	0.594
-96	0.0
-95	0.5
-94	0.0
-93	0.0
-92	0.1667
-91	0.0561
-90	0.1111
-89	0.0
-88	0.1994
-87	0.0556
-86	0.1566
-85	0.0556
-84	0.1111
-83	0.0
-82	0.0
-81	0.0699
-80	0.0
-79	0.1111
-78	0.1032
-77	0.0464
-76	0.0455
-75	0.0
-74	0.0
-73	0.125
-72	0.0
-71	0.0
-70	0.0
-69	0.0303
-68	0.0
-67	0.0829
-66	0.2738
-65	0.3869
-64	0.1139
-63	0.2231
-62	0.0556
-61	0.0
-60	0.0
-59	0.0
-58	0.0
-57	0.0
-56	0.1267
-55	0.3287
-54	0.4409
-53	0.2277
-52	0.1111
-51	0.1667
-50	0.0
-49	0.025
-48	0.0
-47	0.0
-46	0.025
-45	0.3333
-44	0.0455
-43	0.5
-42	0.1082
-41	0.1144
-40	0.0
-39	1.0
-38	2.1185
-37	1.2963
-36	0.8741
-35	0.7333
-34	0.5667
-33	0.506
-32	1.3483
-31	0.9846
-30	1.2333
-29	0.8889
-28	2.6222
-27	1.9843
-26	1.7588
-25	1.36
-24	3.2467
-23	2.6467
-22	2.5719
-21	0.601
-20	0.2778
-19	0.3889
-18	0.0
-17	0.0
-16	0.0
-15	0.0
-14	0.0
-13	0.1529
-12	0.1507
-11	0.5003
-10	0.3137
-9	0.1111
-8	1.3667
-7	3.7
-6	50.7
-5	86.7414
-4	137.2788
-3	153.6341
-2	220.9631
-1	296.6612
0	856.4824
1	296.6612
2	220.9631
3	153.6341
4	137.2788
5	86.7414
6	50.7
7	3.7
8	1.3667
9	0.1111
10	0.3137
11	0.5003
12	0.1507
13	0.1529
14	0.0
15	0.0
16	0.0
17	0.0
18	0.0
19	0.3889
20	0.2778
21	0.601
22	2.5719
23	2.6467
24	3.2467
25	1.36
26	1.7588
27	1.9843
28	2.6222
29	0.8889
30	1.2333
31	0.9846
32	1.3483
33	0.506
34	0.5667
35	0.7333
36	0.8741
37	1.2963
38	2.1185
39	1.0
40	0.0
41	0.1144
42	0.1082
43	0.5
44	0.0455
45	0.3333
46	0.025
47	0.0
48	0.0
49	0.025
50	0.0
51	0.1667
52	0.1111
53	0.2277
54	0.4409
55	0.3287
56	0.1267
57	0.0
58	0.0
59	0.0
60	0.0
61	0.0
62	0.0556
63	0.2231
64	0.1139
65	0.3869
66	0.2738
67	0.0829
68	0.0
69	0.0303
70	0.0
71	0.0
72	0.0
73	0.125
74	0.0
75	0.0
76	0.0455
77	0.0464
78	0.1032
79	0.1111
80	0.0
81	0.0699
82	0.0
83	0.0
84	0.1111
85	0.0556
86	0.1566
87	0.0556
88	0.1994
89	0.0
90	0.1111
91	0.0561
92	0.1667
93	0.0
94	0.0
95	0.5
96	0.0
97	0.594
98	0.2408
99	0.3152
100	0.1452
101	0.1115
102	1.0455
103	3.0
104	1.0
105	1.0
106	0.0
107	0.0
108	0.4444
109	0.2945
110	0.126
111	0.197
112	0.0525
113	0.0631
114	0.0009
115	0.0002
116	0.1206
117	0.1094
118	0.0029
119	0.004
120	0.0111
121	0.2198
122	0.2121
123	0.101
124	0.0014
125	0.0
126	0.1049
127	0.0
128	0.1059
129	0.216
130	0.1111
131	0.0062
132	0.0062
133	0.1389
134	0.3148
135	0.2604
136	0.0
137	0.0
138	0.0526
139	0.0
140	0.0
141	0.0
142	0.3304
143	0.0638
144	1.2685
145	0.1049
146	0.1049
147	0.1074
148	0.0125
149	0.2161
150	0.1286
151	0.1276
152	0.0
153	0.4314
154	0.378
155	0.4058
156	0.1054
157	0.0909
158	0.1551
159	0.0
160	0.0
161	0.0
162	0.0
163	0.1636
164	0.1668
165	0.2104
166	0.2573
167	0.0
168	0.0
169	0.0
170	0.1111
171	0.0
172	0.0
173	0.0
174	0.0
175	0.1049
176	0.1605
177	0.5804
178	0.1049
179	0.3203
180	0.5021
181	0.002
182	0.0004
183	0.0008
184	0.0556
185	0.0009
186	0.0
187	0.1574
188	0.2609
189	0.0
190	0.1055
191	0.1111
192	0.0
193	0.0
194	0.0
195	0.0525
196	0.3148
197	0.3148
198	0.6267
199	0.3556
200	0.1576
