Position	Value
-200	6177.8874
-199	12074.4412
-198	12254.4484
-197	12180.7287
-196	12189.1266
-195	12492.2312
-194	12405.1406
-193	12217.4076
-192	12402.4011
-191	12181.3395
-190	12396.1897
-189	12469.6343
-188	12822.0807
-187	13123.0261
-186	12471.9127
-185	12522.9997
-184	12417.7517
-183	12556.5728
-182	12275.8469
-181	12489.4007
-180	12790.921
-179	12207.7381
-178	12414.2556
-177	12694.2174
-176	12576.8478
-175	11936.1452
-174	12214.9408
-173	12133.8707
-172	12076.3238
-171	12673.2414
-170	12209.7866
-169	12272.2177
-168	12433.0012
-167	12504.8499
-166	12842.8991
-165	13028.1853
-164	12830.0617
-163	12792.2841
-162	12613.0256
-161	12676.6113
-160	12880.5912
-159	12807.108
-158	12374.2351
-157	13408.6574
-156	13402.1385
-155	13352.2544
-154	13366.2105
-153	13103.9405
-152	13499.7164
-151	13104.7685
-150	12916.3194
-149	13010.4859
-148	12877.8271
-147	12986.1248
-146	12691.7997
-145	13058.2656
-144	13232.1017
-143	12912.0585
-142	12733.9919
-141	13020.7639
-140	13033.6777
-139	13232.7427
-138	13174.9291
-137	13653.1353
-136	13073.4316
-135	13054.2444
-134	13210.0683
-133	13452.8627
-132	13467.8739
-131	13677.8737
-130	13284.9701
-129	13577.393
-128	13347.9461
-127	13468.3301
-126	14208.729
-125	13707.3902
-124	13808.7777
-123	13951.3015
-122	14046.9059
-121	13800.8375
-120	13941.8652
-119	13207.9078
-118	13641.3279
-117	13331.9546
-116	12795.096
-115	12720.1877
-114	12836.5076
-113	12763.105
-112	12806.3783
-111	13100.5376
-110	12683.3542
-109	13132.2446
-108	12786.4079
-107	12964.084
-106	13223.6896
-105	12909.6068
-104	13260.2648
-103	13203.7399
-102	14060.3024
-101	13719.6952
-100	13845.1582
-99	14022.0254
-98	13743.4448
-97	14178.3067
-96	14061.3792
-95	14169.4638
-94	14437.898
-93	14403.4052
-92	14650.7654
-91	14901.3666
-90	14355.0772
-89	14596.7423
-88	14154.3769
-87	13881.4137
-86	13592.9619
-85	13080.3142
-84	13383.4612
-83	12851.6322
-82	12814.9068
-81	13252.929
-80	13002.9878
-79	13041.2061
-78	12866.2673
-77	13277.0114
-76	13615.8683
-75	13393.4994
-74	13195.9472
-73	13579.2927
-72	14077.0203
-71	13610.1582
-70	14093.9196
-69	14600.9667
-68	14348.8761
-67	15092.5125
-66	15039.1973
-65	15627.8525
-64	15910.1518
-63	16146.9224
-62	16307.7916
-61	16326.8212
-60	15779.5328
-59	15703.2558
-58	16012.7194
-57	15317.6833
-56	14479.4513
-55	14362.3918
-54	13888.2416
-53	13458.9144
-52	13357.9246
-51	13090.694
-50	13240.122
-49	13118.9234
-48	12706.9502
-47	13052.0274
-46	13041.2184
-45	12938.3396
-44	13759.8241
-43	13212.331
-42	14017.0332
-41	13852.9321
-40	13728.0664
-39	14424.8815
-38	14684.915
-37	14687.5938
-36	14887.1896
-35	15825.4141
-34	15837.3134
-33	16804.9205
-32	16945.4755
-31	17294.3796
-30	18480.5465
-29	17977.9668
-28	17869.7099
-27	15931.0851
-26	14180.1166
-25	14170.523
-24	14289.0553
-23	14336.8143
-22	14720.4874
-21	14786.5166
-20	15167.9888
-19	15549.4032
-18	15161.2522
-17	15872.3797
-16	16505.2881
-15	17117.476
-14	18044.8075
-13	18490.901
-12	21269.2705
-11	22926.3058
-10	24339.5964
-9	26192.5217
-8	28532.0689
-7	31858.1637
-6	34826.9268
-5	40230.0072
-4	43587.3632
-3	48461.5207
-2	52797.1481
-1	51713.0319
0	491396.0376
1	51713.0319
2	52797.1481
3	48461.5207
4	43587.3632
5	40230.0072
6	34826.9268
7	31858.1637
8	28532.0689
9	26192.5217
10	24339.5964
11	22926.3058
12	21269.2705
13	18490.901
14	18044.8075
15	17117.476
16	16505.2881
17	15872.3797
18	15161.2522
19	15549.4032
20	15167.9888
21	14786.5166
22	14720.4874
23	14336.8143
24	14289.0553
25	14170.523
26	14180.1166
27	15931.0851
28	17869.7099
29	17977.9668
30	18480.5465
31	17294.3796
32	16945.4755
33	16804.9205
34	15837.3134
35	15825.4141
36	14887.1896
37	14687.5938
38	14684.915
39	14424.8815
40	13728.0664
41	13852.9321
42	14017.0332
43	13212.331
44	13759.8241
45	12938.3396
46	13041.2184
47	13052.0274
48	12706.9502
49	13118.9234
50	13240.122
51	13090.694
52	13357.9246
53	13458.9144
54	13888.2416
55	14362.3918
56	14479.4513
57	15317.6833
58	16012.7194
59	15703.2558
60	15779.5328
61	16326.8212
62	16307.7916
63	16146.9224
64	15910.1518
65	15627.8525
66	15039.1973
67	15092.5125
68	14348.8761
69	14600.9667
70	14093.9196
71	13610.1582
72	14077.0203
73	13579.2927
74	13195.9472
75	13393.4994
76	13615.8683
77	13277.0114
78	12866.2673
79	13041.2061
80	13002.9878
81	13252.929
82	12814.9068
83	12851.6322
84	13383.4612
85	13080.3142
86	13592.9619
87	13881.4137
88	14154.3769
89	14596.7423
90	14355.0772
91	14901.3666
92	14650.7654
93	14403.4052
94	14437.898
95	14169.4638
96	14061.3792
97	14178.3067
98	13743.4448
99	14022.0254
100	13845.1582
101	13719.6952
102	14060.3024
103	13203.7399
104	13260.2648
105	12909.6068
106	13223.6896
107	12964.084
108	12786.4079
109	13132.2446
110	12683.3542
111	13100.5376
112	12806.3783
113	12763.105
114	12836.5076
115	12720.1877
116	12795.096
117	13331.9546
118	13641.3279
119	13207.9078
120	13941.8652
121	13800.8375
122	14046.9059
123	13951.3015
124	13808.7777
125	13707.3902
126	14208.729
127	13468.3301
128	13347.9461
129	13577.393
130	13284.9701
131	13677.8737
132	13467.8739
133	13452.8627
134	13210.0683
135	13054.2444
136	13073.4316
137	13653.1353
138	13174.9291
139	13232.7427
140	13033.6777
141	13020.7639
142	12733.9919
143	12912.0585
144	13232.1017
145	13058.2656
146	12691.7997
147	12986.1248
148	12877.8271
149	13010.4859
150	12916.3194
151	13104.7685
152	13499.7164
153	13103.9405
154	13366.2105
155	13352.2544
156	13402.1385
157	13408.6574
158	12374.2351
159	12807.108
160	12880.5912
161	12676.6113
162	12613.0256
163	12792.2841
164	12830.0617
165	13028.1853
166	12842.8991
167	12504.8499
168	12433.0012
169	12272.2177
170	12209.7866
171	12673.2414
172	12076.3238
173	12133.8707
174	12214.9408
175	11936.1452
176	12576.8478
177	12694.2174
178	12414.2556
179	12207.7381
180	12790.921
181	12489.4007
182	12275.8469
183	12556.5728
184	12417.7517
185	12522.9997
186	12471.9127
187	13123.0261
188	12822.0807
189	12469.6343
190	12396.1897
191	12181.3395
192	12402.4011
193	12217.4076
194	12405.1406
195	12492.2312
196	12189.1266
197	12180.7287
198	12254.4484
199	12074.4412
200	6177.8874
