Position	Value
-200	1.04918e+06
-199	1.05169e+06
-198	1.05122e+06
-197	1.05161e+06
-196	1.0541e+06
-195	1.0557e+06
-194	1.05529e+06
-193	1.0529e+06
-192	1.05594e+06
-191	1.05558e+06
-190	1.0589e+06
-189	1.05903e+06
-188	1.0575e+06
-187	1.06138e+06
-186	1.06246e+06
-185	1.06135e+06
-184	1.06316e+06
-183	1.06842e+06
-182	1.06732e+06
-181	1.0686e+06
-180	1.07027e+06
-179	1.07018e+06
-178	1.07065e+06
-177	1.07184e+06
-176	1.07224e+06
-175	1.07329e+06
-174	1.0772e+06
-173	1.07623e+06
-172	1.07978e+06
-171	1.08056e+06
-170	1.08162e+06
-169	1.08433e+06
-168	1.08906e+06
-167	1.09008e+06
-166	1.09316e+06
-165	1.09784e+06
-164	1.09777e+06
-163	1.09878e+06
-162	1.09979e+06
-161	1.10008e+06
-160	1.09971e+06
-159	1.10295e+06
-158	1.10472e+06
-157	1.10766e+06
-156	1.11166e+06
-155	1.10982e+06
-154	1.10927e+06
-153	1.11019e+06
-152	1.11067e+06
-151	1.10784e+06
-150	1.11222e+06
-149	1.11296e+06
-148	1.11338e+06
-147	1.11318e+06
-146	1.11212e+06
-145	1.11338e+06
-144	1.11498e+06
-143	1.11395e+06
-142	1.112e+06
-141	1.11519e+06
-140	1.1161e+06
-139	1.12102e+06
-138	1.12311e+06
-137	1.12344e+06
-136	1.12739e+06
-135	1.13008e+06
-134	1.13169e+06
-133	1.13579e+06
-132	1.14094e+06
-131	1.14374e+06
-130	1.14787e+06
-129	1.15048e+06
-128	1.15014e+06
-127	1.15166e+06
-126	1.15562e+06
-125	1.15728e+06
-124	1.15832e+06
-123	1.16147e+06
-122	1.16201e+06
-121	1.16236e+06
-120	1.1645e+06
-119	1.16402e+06
-118	1.16487e+06
-117	1.16611e+06
-116	1.16455e+06
-115	1.16567e+06
-114	1.1687e+06
-113	1.17159e+06
-112	1.17368e+06
-111	1.18098e+06
-110	1.17804e+06
-109	1.17826e+06
-108	1.18157e+06
-107	1.18202e+06
-106	1.18521e+06
-105	1.19113e+06
-104	1.18755e+06
-103	1.1935e+06
-102	1.19975e+06
-101	1.1975e+06
-100	1.19799e+06
-99	1.20544e+06
-98	1.20435e+06
-97	1.20826e+06
-96	1.21896e+06
-95	1.21991e+06
-94	1.22326e+06
-93	1.23211e+06
-92	1.23533e+06
-91	1.24215e+06
-90	1.2458e+06
-89	1.24833e+06
-88	1.25472e+06
-87	1.25744e+06
-86	1.2595e+06
-85	1.26146e+06
-84	1.26738e+06
-83	1.27148e+06
-82	1.27527e+06
-81	1.27894e+06
-80	1.28092e+06
-79	1.28609e+06
-78	1.29121e+06
-77	1.29463e+06
-76	1.2942e+06
-75	1.29794e+06
-74	1.29736e+06
-73	1.29824e+06
-72	1.30483e+06
-71	1.30623e+06
-70	1.30793e+06
-69	1.31406e+06
-68	1.31243e+06
-67	1.31798e+06
-66	1.32618e+06
-65	1.32883e+06
-64	1.33301e+06
-63	1.34028e+06
-62	1.34299e+06
-61	1.34523e+06
-60	1.35344e+06
-59	1.35196e+06
-58	1.35639e+06
-57	1.36036e+06
-56	1.36203e+06
-55	1.36347e+06
-54	1.3681e+06
-53	1.37057e+06
-52	1.37194e+06
-51	1.37668e+06
-50	1.37799e+06
-49	1.38248e+06
-48	1.38754e+06
-47	1.39054e+06
-46	1.39619e+06
-45	1.40403e+06
-44	1.40702e+06
-43	1.41518e+06
-42	1.42661e+06
-41	1.43209e+06
-40	1.44252e+06
-39	1.45559e+06
-38	1.46039e+06
-37	1.46841e+06
-36	1.48346e+06
-35	1.507e+06
-34	1.50966e+06
-33	1.51692e+06
-32	1.51078e+06
-31	1.50751e+06
-30	1.50293e+06
-29	1.48971e+06
-28	1.47503e+06
-27	1.45506e+06
-26	1.43949e+06
-25	1.43771e+06
-24	1.43347e+06
-23	1.41355e+06
-22	1.4209e+06
-21	1.44721e+06
-20	1.47306e+06
-19	1.51019e+06
-18	1.56092e+06
-17	1.60508e+06
-16	1.66202e+06
-15	1.72586e+06
-14	1.79526e+06
-13	1.88155e+06
-12	1.98119e+06
-11	2.08994e+06
-10	2.21393e+06
-9	2.34676e+06
-8	2.48556e+06
-7	2.65089e+06
-6	2.84434e+06
-5	3.04666e+06
-4	3.31588e+06
-3	3.61549e+06
-2	3.94367e+06
-1	4.50426e+06
0	8.38615e+06
1	4.50426e+06
2	3.94367e+06
3	3.61549e+06
4	3.31588e+06
5	3.04666e+06
6	2.84434e+06
7	2.65089e+06
8	2.48556e+06
9	2.34676e+06
10	2.21393e+06
11	2.08994e+06
12	1.98119e+06
13	1.88155e+06
14	1.79526e+06
15	1.72586e+06
16	1.66202e+06
17	1.60508e+06
18	1.56092e+06
19	1.51019e+06
20	1.47306e+06
21	1.44721e+06
22	1.4209e+06
23	1.41355e+06
24	1.43347e+06
25	1.43771e+06
26	1.43949e+06
27	1.45506e+06
28	1.47503e+06
29	1.48971e+06
30	1.50293e+06
31	1.50751e+06
32	1.51078e+06
33	1.51692e+06
34	1.50966e+06
35	1.507e+06
36	1.48346e+06
37	1.46841e+06
38	1.46039e+06
39	1.45559e+06
40	1.44252e+06
41	1.43209e+06
42	1.42661e+06
43	1.41518e+06
44	1.40702e+06
45	1.40403e+06
46	1.39619e+06
47	1.39054e+06
48	1.38754e+06
49	1.38248e+06
50	1.37799e+06
51	1.37668e+06
52	1.37194e+06
53	1.37057e+06
54	1.3681e+06
55	1.36347e+06
56	1.36203e+06
57	1.36036e+06
58	1.35639e+06
59	1.35196e+06
60	1.35344e+06
61	1.34523e+06
62	1.34299e+06
63	1.34028e+06
64	1.33301e+06
65	1.32883e+06
66	1.32618e+06
67	1.31798e+06
68	1.31243e+06
69	1.31406e+06
70	1.30793e+06
71	1.30623e+06
72	1.30483e+06
73	1.29824e+06
74	1.29736e+06
75	1.29794e+06
76	1.2942e+06
77	1.29463e+06
78	1.29121e+06
79	1.28609e+06
80	1.28092e+06
81	1.27894e+06
82	1.27527e+06
83	1.27148e+06
84	1.26738e+06
85	1.26146e+06
86	1.2595e+06
87	1.25744e+06
88	1.25472e+06
89	1.24833e+06
90	1.2458e+06
91	1.24215e+06
92	1.23533e+06
93	1.23211e+06
94	1.22326e+06
95	1.21991e+06
96	1.21896e+06
97	1.20826e+06
98	1.20435e+06
99	1.20544e+06
100	1.19799e+06
101	1.1975e+06
102	1.19975e+06
103	1.1935e+06
104	1.18755e+06
105	1.19113e+06
106	1.18521e+06
107	1.18202e+06
108	1.18157e+06
109	1.17826e+06
110	1.17804e+06
111	1.18098e+06
112	1.17368e+06
113	1.17159e+06
114	1.1687e+06
115	1.16567e+06
116	1.16455e+06
117	1.16611e+06
118	1.16487e+06
119	1.16402e+06
120	1.1645e+06
121	1.16236e+06
122	1.16201e+06
123	1.16147e+06
124	1.15832e+06
125	1.15728e+06
126	1.15562e+06
127	1.15166e+06
128	1.15014e+06
129	1.15048e+06
130	1.14787e+06
131	1.14374e+06
132	1.14094e+06
133	1.13579e+06
134	1.13169e+06
135	1.13008e+06
136	1.12739e+06
137	1.12344e+06
138	1.12311e+06
139	1.12102e+06
140	1.1161e+06
141	1.11519e+06
142	1.112e+06
143	1.11395e+06
144	1.11498e+06
145	1.11338e+06
146	1.11212e+06
147	1.11318e+06
148	1.11338e+06
149	1.11296e+06
150	1.11222e+06
151	1.10784e+06
152	1.11067e+06
153	1.11019e+06
154	1.10927e+06
155	1.10982e+06
156	1.11166e+06
157	1.10766e+06
158	1.10472e+06
159	1.10295e+06
160	1.09971e+06
161	1.10008e+06
162	1.09979e+06
163	1.09878e+06
164	1.09777e+06
165	1.09784e+06
166	1.09316e+06
167	1.09008e+06
168	1.08906e+06
169	1.08433e+06
170	1.08162e+06
171	1.08056e+06
172	1.07978e+06
173	1.07623e+06
174	1.0772e+06
175	1.07329e+06
176	1.07224e+06
177	1.07184e+06
178	1.07065e+06
179	1.07018e+06
180	1.07027e+06
181	1.0686e+06
182	1.06732e+06
183	1.06842e+06
184	1.06316e+06
185	1.06135e+06
186	1.06246e+06
187	1.06138e+06
188	1.0575e+06
189	1.05903e+06
190	1.0589e+06
191	1.05558e+06
192	1.05594e+06
193	1.0529e+06
194	1.05529e+06
195	1.0557e+06
196	1.0541e+06
197	1.05161e+06
198	1.05122e+06
199	1.05169e+06
200	1.04918e+06
