Position	Value
-200	24471.4421
-199	48384.1777
-198	48622.211
-197	47849.1581
-196	49223.114
-195	49719.0067
-194	50092.8773
-193	49926.5126
-192	50277.9514
-191	49661.8011
-190	49642.1468
-189	51056.6015
-188	49953.4972
-187	50340.7877
-186	51133.2209
-185	50971.9258
-184	49691.9044
-183	51366.8769
-182	50594.2089
-181	51053.1278
-180	50842.8409
-179	49972.043
-178	49767.6543
-177	50424.147
-176	50145.9597
-175	50198.1005
-174	49660.6665
-173	50136.2795
-172	50072.3007
-171	50712.3851
-170	49328.6558
-169	50683.2148
-168	51252.9478
-167	49664.4589
-166	49970.3406
-165	52656.5245
-164	51592.6297
-163	50691.0908
-162	51914.2761
-161	51232.9824
-160	51331.7658
-159	51704.3433
-158	52072.3491
-157	51926.6421
-156	53278.3217
-155	51903.4307
-154	52158.6941
-153	52006.2056
-152	51903.4826
-151	52443.1267
-150	51852.2929
-149	51159.8704
-148	51754.7551
-147	52218.3499
-146	50384.1202
-145	51586.9374
-144	51463.8477
-143	50429.1201
-142	50667.5533
-141	50990.6279
-140	51457.3912
-139	50968.4385
-138	51945.5095
-137	50761.3093
-136	51693.4141
-135	52804.3792
-134	51747.672
-133	51618.9998
-132	53376.2584
-131	52196.787
-130	53463.2716
-129	53457.1296
-128	54290.4887
-127	54263.5527
-126	55267.4564
-125	54070.3513
-124	54713.2111
-123	55083.0386
-122	55286.2753
-121	54589.1594
-120	54826.8016
-119	54453.4174
-118	53718.8695
-117	54398.3279
-116	52140.8154
-115	51952.8784
-114	52034.113
-113	52041.5228
-112	51321.0857
-111	52343.6275
-110	52063.7777
-109	51634.1267
-108	52200.8532
-107	51513.6289
-106	51179.0378
-105	52172.4169
-104	52682.3109
-103	52925.7761
-102	54047.1854
-101	52616.5074
-100	53033.9428
-99	55816.8679
-98	54455.3274
-97	55356.5727
-96	56225.7829
-95	57041.5429
-94	56691.365
-93	58839.7214
-92	57675.582
-91	57099.6799
-90	58154.5676
-89	56471.8307
-88	56428.7424
-87	55654.4615
-86	54537.299
-85	54675.9245
-84	54223.7974
-83	52226.5126
-82	53271.0257
-81	52929.79
-80	52579.2447
-79	51982.1409
-78	51946.0951
-77	51179.0901
-76	52398.5154
-75	52839.0691
-74	51398.8801
-73	52592.3494
-72	54846.7549
-71	53721.7554
-70	54118.9204
-69	56303.3238
-68	55620.6998
-67	56095.2515
-66	58800.8553
-65	58252.586
-64	60180.6011
-63	61800.3913
-62	62909.1092
-61	62231.5004
-60	63210.2183
-59	62684.2271
-58	60625.7967
-57	59963.4476
-56	56934.3926
-55	56252.6303
-54	55768.4923
-53	53999.1595
-52	55375.5552
-51	54964.7647
-50	54361.9739
-49	53835.0077
-48	55181.8284
-47	53382.5338
-46	53398.1422
-45	54519.7163
-44	53012.3081
-43	53468.9368
-42	55542.9713
-41	54860.6338
-40	54909.3196
-39	57851.6718
-38	56593.624
-37	57592.497
-36	60820.5432
-35	60941.5728
-34	63013.5308
-33	67110.6315
-32	68067.7066
-31	69946.3308
-30	74213.2639
-29	66616.7965
-28	66293.3785
-27	70010.4453
-26	63898.8951
-25	58503.1047
-24	58215.1744
-23	58062.261
-22	58904.9037
-21	63723.6461
-20	65022.0504
-19	65454.1971
-18	68123.1737
-17	68670.6974
-16	70959.0042
-15	73446.0356
-14	74701.4382
-13	76209.9909
-12	82491.856
-11	87120.3723
-10	87405.6605
-9	89483.402
-8	91118.0179
-7	99254.0432
-6	107297.6774
-5	110032.3176
-4	117582.11
-3	131977.1008
-2	131587.9236
-1	137763.4257
0	1445873.1213
1	137763.4257
2	131587.9236
3	131977.1008
4	117582.11
5	110032.3176
6	107297.6774
7	99254.0432
8	91118.0179
9	89483.402
10	87405.6605
11	87120.3723
12	82491.856
13	76209.9909
14	74701.4382
15	73446.0356
16	70959.0042
17	68670.6974
18	68123.1737
19	65454.1971
20	65022.0504
21	63723.6461
22	58904.9037
23	58062.261
24	58215.1744
25	58503.1047
26	63898.8951
27	70010.4453
28	66293.3785
29	66616.7965
30	74213.2639
31	69946.3308
32	68067.7066
33	67110.6315
34	63013.5308
35	60941.5728
36	60820.5432
37	57592.497
38	56593.624
39	57851.6718
40	54909.3196
41	54860.6338
42	55542.9713
43	53468.9368
44	53012.3081
45	54519.7163
46	53398.1422
47	53382.5338
48	55181.8284
49	53835.0077
50	54361.9739
51	54964.7647
52	55375.5552
53	53999.1595
54	55768.4923
55	56252.6303
56	56934.3926
57	59963.4476
58	60625.7967
59	62684.2271
60	63210.2183
61	62231.5004
62	62909.1092
63	61800.3913
64	60180.6011
65	58252.586
66	58800.8553
67	56095.2515
68	55620.6998
69	56303.3238
70	54118.9204
71	53721.7554
72	54846.7549
73	52592.3494
74	51398.8801
75	52839.0691
76	52398.5154
77	51179.0901
78	51946.0951
79	51982.1409
80	52579.2447
81	52929.79
82	53271.0257
83	52226.5126
84	54223.7974
85	54675.9245
86	54537.299
87	55654.4615
88	56428.7424
89	56471.8307
90	58154.5676
91	57099.6799
92	57675.582
93	58839.7214
94	56691.365
95	57041.5429
96	56225.7829
97	55356.5727
98	54455.3274
99	55816.8679
100	53033.9428
101	52616.5074
102	54047.1854
103	52925.7761
104	52682.3109
105	52172.4169
106	51179.0378
107	51513.6289
108	52200.8532
109	51634.1267
110	52063.7777
111	52343.6275
112	51321.0857
113	52041.5228
114	52034.113
115	51952.8784
116	52140.8154
117	54398.3279
118	53718.8695
119	54453.4174
120	54826.8016
121	54589.1594
122	55286.2753
123	55083.0386
124	54713.2111
125	54070.3513
126	55267.4564
127	54263.5527
128	54290.4887
129	53457.1296
130	53463.2716
131	52196.787
132	53376.2584
133	51618.9998
134	51747.672
135	52804.3792
136	51693.4141
137	50761.3093
138	51945.5095
139	50968.4385
140	51457.3912
141	50990.6279
142	50667.5533
143	50429.1201
144	51463.8477
145	51586.9374
146	50384.1202
147	52218.3499
148	51754.7551
149	51159.8704
150	51852.2929
151	52443.1267
152	51903.4826
153	52006.2056
154	52158.6941
155	51903.4307
156	53278.3217
157	51926.6421
158	52072.3491
159	51704.3433
160	51331.7658
161	51232.9824
162	51914.2761
163	50691.0908
164	51592.6297
165	52656.5245
166	49970.3406
167	49664.4589
168	51252.9478
169	50683.2148
170	49328.6558
171	50712.3851
172	50072.3007
173	50136.2795
174	49660.6665
175	50198.1005
176	50145.9597
177	50424.147
178	49767.6543
179	49972.043
180	50842.8409
181	51053.1278
182	50594.2089
183	51366.8769
184	49691.9044
185	50971.9258
186	51133.2209
187	50340.7877
188	49953.4972
189	51056.6015
190	49642.1468
191	49661.8011
192	50277.9514
193	49926.5126
194	50092.8773
195	49719.0067
196	49223.114
197	47849.1581
198	48622.211
199	48384.1777
200	24471.4421
