Position	Value
-200	2756.0551
-199	5439.5046
-198	5319.0568
-197	5497.5027
-196	5432.9473
-195	5748.4811
-194	5690.5868
-193	5427.9874
-192	5473.2674
-191	5549.5988
-190	5626.9971
-189	5436.8916
-188	5496.222
-187	5299.9069
-186	5149.676
-185	5395.7693
-184	5523.0451
-183	5651.7401
-182	5095.1586
-181	5525.5247
-180	5328.4453
-179	5469.3743
-178	5133.8011
-177	5526.9031
-176	5534.6858
-175	5504.8845
-174	5686.091
-173	5353.0186
-172	5548.7423
-171	5667.7882
-170	5429.2352
-169	5729.681
-168	5362.1121
-167	5707.8544
-166	5548.3241
-165	5424.1694
-164	5424.4311
-163	5880.015
-162	5525.3894
-161	5533.9323
-160	5754.5227
-159	5608.8999
-158	5557.1138
-157	5461.2456
-156	5785.8537
-155	5467.4647
-154	5493.1718
-153	5644.7766
-152	5692.6077
-151	5564.4352
-150	5654.6824
-149	5643.334
-148	5783.2082
-147	5544.9245
-146	5624.0974
-145	5772.4735
-144	6065.3637
-143	5883.4349
-142	5687.6594
-141	5589.9418
-140	5450.9856
-139	5631.3671
-138	5789.6047
-137	5712.4271
-136	5854.953
-135	5972.3751
-134	5786.5849
-133	5581.0639
-132	6055.0395
-131	5986.4902
-130	5913.7791
-129	6122.1005
-128	6046.3854
-127	6050.3592
-126	5932.813
-125	5774.5129
-124	5861.379
-123	5808.3959
-122	5726.7888
-121	5505.4713
-120	5775.5244
-119	5865.5563
-118	5444.794
-117	5671.1585
-116	5468.4926
-115	5590.0685
-114	5914.9457
-113	5734.0305
-112	5598.0819
-111	5888.1693
-110	5632.5375
-109	5891.4777
-108	6016.2097
-107	6073.6744
-106	5545.2653
-105	6077.3317
-104	5706.9494
-103	5829.4159
-102	5967.4064
-101	6068.7416
-100	6064.7573
-99	6259.8658
-98	6263.9885
-97	6101.3309
-96	6211.8404
-95	6231.6094
-94	6286.6801
-93	5983.7412
-92	6095.5154
-91	6115.392
-90	6094.9826
-89	6200.7917
-88	6096.0072
-87	6249.212
-86	6392.8798
-85	5863.0605
-84	5961.537
-83	5693.5672
-82	5761.6553
-81	6361.6207
-80	6003.3914
-79	6253.5093
-78	6044.7983
-77	6254.2707
-76	6066.5602
-75	6320.4786
-74	6175.0293
-73	6065.6392
-72	6547.3053
-71	6501.1403
-70	6576.3905
-69	7044.5109
-68	6738.3057
-67	6743.2688
-66	7053.4073
-65	7073.9214
-64	6866.2043
-63	7377.1738
-62	6943.4881
-61	7049.5331
-60	6678.5603
-59	6816.498
-58	6862.569
-57	6463.8547
-56	6813.2541
-55	6466.6956
-54	6483.2674
-53	6660.7364
-52	6664.9752
-51	6772.3284
-50	6606.7543
-49	6746.0715
-48	6810.5363
-47	6658.2025
-46	6485.3094
-45	6412.8668
-44	6255.8291
-43	6798.3449
-42	6680.1825
-41	6800.8578
-40	6565.8689
-39	6949.9074
-38	6977.0953
-37	6976.2855
-36	7273.1343
-35	7555.7404
-34	7799.6429
-33	7616.2753
-32	8185.5399
-31	7883.1672
-30	8086.1258
-29	7793.1299
-28	7333.4871
-27	7018.8417
-26	6628.2146
-25	6743.5019
-24	6665.1036
-23	7032.0132
-22	7061.3319
-21	7524.0071
-20	7662.1962
-19	7978.3446
-18	8013.1646
-17	8171.6839
-16	8134.9809
-15	8436.6556
-14	8693.201
-13	9126.7417
-12	9805.1722
-11	10001.4238
-10	10235.4296
-9	10794.0073
-8	11719.0619
-7	12443.9098
-6	12859.3166
-5	14426.4819
-4	16609.7391
-3	18637.0205
-2	18582.7897
-1	20314.6828
0	138974.9923
1	20314.6828
2	18582.7897
3	18637.0205
4	16609.7391
5	14426.4819
6	12859.3166
7	12443.9098
8	11719.0619
9	10794.0073
10	10235.4296
11	10001.4238
12	9805.1722
13	9126.7417
14	8693.201
15	8436.6556
16	8134.9809
17	8171.6839
18	8013.1646
19	7978.3446
20	7662.1962
21	7524.0071
22	7061.3319
23	7032.0132
24	6665.1036
25	6743.5019
26	6628.2146
27	7018.8417
28	7333.4871
29	7793.1299
30	8086.1258
31	7883.1672
32	8185.5399
33	7616.2753
34	7799.6429
35	7555.7404
36	7273.1343
37	6976.2855
38	6977.0953
39	6949.9074
40	6565.8689
41	6800.8578
42	6680.1825
43	6798.3449
44	6255.8291
45	6412.8668
46	6485.3094
47	6658.2025
48	6810.5363
49	6746.0715
50	6606.7543
51	6772.3284
52	6664.9752
53	6660.7364
54	6483.2674
55	6466.6956
56	6813.2541
57	6463.8547
58	6862.569
59	6816.498
60	6678.5603
61	7049.5331
62	6943.4881
63	7377.1738
64	6866.2043
65	7073.9214
66	7053.4073
67	6743.2688
68	6738.3057
69	7044.5109
70	6576.3905
71	6501.1403
72	6547.3053
73	6065.6392
74	6175.0293
75	6320.4786
76	6066.5602
77	6254.2707
78	6044.7983
79	6253.5093
80	6003.3914
81	6361.6207
82	5761.6553
83	5693.5672
84	5961.537
85	5863.0605
86	6392.8798
87	6249.212
88	6096.0072
89	6200.7917
90	6094.9826
91	6115.392
92	6095.5154
93	5983.7412
94	6286.6801
95	6231.6094
96	6211.8404
97	6101.3309
98	6263.9885
99	6259.8658
100	6064.7573
101	6068.7416
102	5967.4064
103	5829.4159
104	5706.9494
105	6077.3317
106	5545.2653
107	6073.6744
108	6016.2097
109	5891.4777
110	5632.5375
111	5888.1693
112	5598.0819
113	5734.0305
114	5914.9457
115	5590.0685
116	5468.4926
117	5671.1585
118	5444.794
119	5865.5563
120	5775.5244
121	5505.4713
122	5726.7888
123	5808.3959
124	5861.379
125	5774.5129
126	5932.813
127	6050.3592
128	6046.3854
129	6122.1005
130	5913.7791
131	5986.4902
132	6055.0395
133	5581.0639
134	5786.5849
135	5972.3751
136	5854.953
137	5712.4271
138	5789.6047
139	5631.3671
140	5450.9856
141	5589.9418
142	5687.6594
143	5883.4349
144	6065.3637
145	5772.4735
146	5624.0974
147	5544.9245
148	5783.2082
149	5643.334
150	5654.6824
151	5564.4352
152	5692.6077
153	5644.7766
154	5493.1718
155	5467.4647
156	5785.8537
157	5461.2456
158	5557.1138
159	5608.8999
160	5754.5227
161	5533.9323
162	5525.3894
163	5880.015
164	5424.4311
165	5424.1694
166	5548.3241
167	5707.8544
168	5362.1121
169	5729.681
170	5429.2352
171	5667.7882
172	5548.7423
173	5353.0186
174	5686.091
175	5504.8845
176	5534.6858
177	5526.9031
178	5133.8011
179	5469.3743
180	5328.4453
181	5525.5247
182	5095.1586
183	5651.7401
184	5523.0451
185	5395.7693
186	5149.676
187	5299.9069
188	5496.222
189	5436.8916
190	5626.9971
191	5549.5988
192	5473.2674
193	5427.9874
194	5690.5868
195	5748.4811
196	5432.9473
197	5497.5027
198	5319.0568
199	5439.5046
200	2756.0551
