Position	Value
-200	82107.2593
-199	164098.7932
-198	165653.399
-197	165087.5268
-196	164706.2353
-195	165014.7969
-194	166745.3998
-193	164810.5631
-192	165961.3069
-191	166515.2434
-190	166642.8473
-189	166102.9115
-188	166073.6461
-187	166051.3862
-186	166643.048
-185	166897.1542
-184	166313.4781
-183	167726.3839
-182	165028.6552
-181	167664.8669
-180	166929.8617
-179	163704.9354
-178	164882.6194
-177	167218.3139
-176	165598.8014
-175	165304.381
-174	167904.7331
-173	166481.1414
-172	167422.7541
-171	167849.5546
-170	166384.0957
-169	168292.5903
-168	167801.9017
-167	168017.018
-166	168007.2398
-165	169556.1211
-164	167622.6334
-163	168675.2352
-162	168639.5629
-161	168482.4016
-160	167332.2157
-159	168738.1608
-158	167489.275
-157	168807.4447
-156	170164.1948
-155	168991.1497
-154	166823.8129
-153	168435.832
-152	170212.0082
-151	170337.0626
-150	168939.8581
-149	169539.5611
-148	169009.7077
-147	170542.0096
-146	169621.1693
-145	171302.5411
-144	171605.2178
-143	169304.8613
-142	170233.7277
-141	170105.749
-140	171091.9086
-139	171209.4784
-138	170756.6428
-137	170438.2685
-136	171524.9283
-135	172987.6518
-134	171632.9235
-133	171697.5949
-132	174520.1411
-131	172288.6211
-130	176010.1385
-129	175144.8955
-128	175037.8564
-127	174671.1458
-126	176288.0271
-125	174851.0926
-124	173787.0761
-123	174692.086
-122	174477.496
-121	172640.8002
-120	173552.0777
-119	171458.5945
-118	172119.6997
-117	172534.5787
-116	170511.2157
-115	170924.5326
-114	172707.0578
-113	172697.1129
-112	171022.0858
-111	173288.118
-110	172850.2609
-109	173181.6733
-108	173741.1992
-107	173323.1071
-106	172444.114
-105	175416.3696
-104	173655.6125
-103	173459.7329
-102	175518.2831
-101	175559.3929
-100	176617.3459
-99	176964.5005
-98	176860.7121
-97	175007.8264
-96	177529.8612
-95	176857.4422
-94	177320.0698
-93	177022.2996
-92	177335.9643
-91	176218.3338
-90	175790.4702
-89	176761.2119
-88	176307.0379
-87	175380.2853
-86	174214.1552
-85	173977.5461
-84	174706.7661
-83	171780.5213
-82	174146.2027
-81	174523.6153
-80	174863.9093
-79	174910.6104
-78	174772.5259
-77	176428.2849
-76	177139.7401
-75	177317.8089
-74	175716.111
-73	176608.013
-72	178361.5187
-71	178419.5765
-70	180604.6975
-69	182543.9119
-68	181001.4598
-67	182828.9943
-66	185953.4601
-65	186041.6023
-64	184443.0432
-63	187014.9093
-62	186995.8869
-61	185809.0835
-60	186611.5864
-59	185579.1843
-58	185507.8752
-57	182658.925
-56	182924.5619
-55	182642.0846
-54	182608.0183
-53	181621.147
-52	183808.8576
-51	183124.4418
-50	182808.5527
-49	181520.788
-48	182402.6056
-47	182096.3232
-46	180196.8033
-45	181562.2757
-44	180018.4286
-43	180563.9824
-42	183963.8554
-41	183227.3973
-40	184274.7694
-39	183935.6145
-38	183945.5768
-37	186975.9458
-36	191714.5061
-35	189975.97
-34	192302.8445
-33	194197.8176
-32	195038.8285
-31	193649.9622
-30	197322.1244
-29	195232.641
-28	188695.3618
-27	185445.0355
-26	183489.5499
-25	181037.1877
-24	186942.3579
-23	190665.5157
-22	194011.1053
-21	199653.3277
-20	205252.2633
-19	208015.8069
-18	212243.0495
-17	215609.8106
-16	215053.5065
-15	219668.7686
-14	224191.0561
-13	234249.9851
-12	243297.6845
-11	250914.366
-10	258481.1742
-9	271590.1259
-8	282626.0034
-7	297737.3313
-6	313016.7551
-5	337276.0527
-4	375502.1392
-3	415899.9441
-2	404726.6521
-1	403806.9743
0	1362918.2271
1	403806.9743
2	404726.6521
3	415899.9441
4	375502.1392
5	337276.0527
6	313016.7551
7	297737.3313
8	282626.0034
9	271590.1259
10	258481.1742
11	250914.366
12	243297.6845
13	234249.9851
14	224191.0561
15	219668.7686
16	215053.5065
17	215609.8106
18	212243.0495
19	208015.8069
20	205252.2633
21	199653.3277
22	194011.1053
23	190665.5157
24	186942.3579
25	181037.1877
26	183489.5499
27	185445.0355
28	188695.3618
29	195232.641
30	197322.1244
31	193649.9622
32	195038.8285
33	194197.8176
34	192302.8445
35	189975.97
36	191714.5061
37	186975.9458
38	183945.5768
39	183935.6145
40	184274.7694
41	183227.3973
42	183963.8554
43	180563.9824
44	180018.4286
45	181562.2757
46	180196.8033
47	182096.3232
48	182402.6056
49	181520.788
50	182808.5527
51	183124.4418
52	183808.8576
53	181621.147
54	182608.0183
55	182642.0846
56	182924.5619
57	182658.925
58	185507.8752
59	185579.1843
60	186611.5864
61	185809.0835
62	186995.8869
63	187014.9093
64	184443.0432
65	186041.6023
66	185953.4601
67	182828.9943
68	181001.4598
69	182543.9119
70	180604.6975
71	178419.5765
72	178361.5187
73	176608.013
74	175716.111
75	177317.8089
76	177139.7401
77	176428.2849
78	174772.5259
79	174910.6104
80	174863.9093
81	174523.6153
82	174146.2027
83	171780.5213
84	174706.7661
85	173977.5461
86	174214.1552
87	175380.2853
88	176307.0379
89	176761.2119
90	175790.4702
91	176218.3338
92	177335.9643
93	177022.2996
94	177320.0698
95	176857.4422
96	177529.8612
97	175007.8264
98	176860.7121
99	176964.5005
100	176617.3459
101	175559.3929
102	175518.2831
103	173459.7329
104	173655.6125
105	175416.3696
106	172444.114
107	173323.1071
108	173741.1992
109	173181.6733
110	172850.2609
111	173288.118
112	171022.0858
113	172697.1129
114	172707.0578
115	170924.5326
116	170511.2157
117	172534.5787
118	172119.6997
119	171458.5945
120	173552.0777
121	172640.8002
122	174477.496
123	174692.086
124	173787.0761
125	174851.0926
126	176288.0271
127	174671.1458
128	175037.8564
129	175144.8955
130	176010.1385
131	172288.6211
132	174520.1411
133	171697.5949
134	171632.9235
135	172987.6518
136	171524.9283
137	170438.2685
138	170756.6428
139	171209.4784
140	171091.9086
141	170105.749
142	170233.7277
143	169304.8613
144	171605.2178
145	171302.5411
146	169621.1693
147	170542.0096
148	169009.7077
149	169539.5611
150	168939.8581
151	170337.0626
152	170212.0082
153	168435.832
154	166823.8129
155	168991.1497
156	170164.1948
157	168807.4447
158	167489.275
159	168738.1608
160	167332.2157
161	168482.4016
162	168639.5629
163	168675.2352
164	167622.6334
165	169556.1211
166	168007.2398
167	168017.018
168	167801.9017
169	168292.5903
170	166384.0957
171	167849.5546
172	167422.7541
173	166481.1415
174	167904.7331
175	165304.381
176	165598.8014
177	167218.3139
178	164882.6194
179	163704.9354
180	166929.8617
181	167664.8669
182	165028.6552
183	167726.3839
184	166313.4781
185	166897.1542
186	166643.048
187	166051.3862
188	166073.6461
189	166102.9115
190	166642.8473
191	166515.2434
192	165961.3069
193	164810.5631
194	166745.3998
195	165014.7969
196	164706.2353
197	165087.5268
198	165653.399
199	164098.7932
200	82107.2593
