Position	Value
-200	18490.3762
-199	37413.8765
-198	37324.7518
-197	36837.2148
-196	37343.4655
-195	37877.9911
-194	38075.8338
-193	38083.8983
-192	38068.852
-191	38473.512
-190	38080.4146
-189	38272.3285
-188	38188.1353
-187	38235.6351
-186	38512.1687
-185	38541.2189
-184	38322.2423
-183	38487.0225
-182	38294.3626
-181	37938.0182
-180	38227.0054
-179	37478.1559
-178	37476.0433
-177	38342.0966
-176	37696.3314
-175	37136.4362
-174	37171.7911
-173	37833.6733
-172	37507.7204
-171	38210.9381
-170	37885.3966
-169	38123.638
-168	38176.3981
-167	38766.9304
-166	38772.3203
-165	39909.0747
-164	39414.7129
-163	39519.1206
-162	39415.8126
-161	39573.5447
-160	39472.4841
-159	40635.2665
-158	40019.2856
-157	40021.4964
-156	41134.6018
-155	40103.4842
-154	40684.7338
-153	40010.3813
-152	40716.1527
-151	39495.6274
-150	40347.1772
-149	39239.7379
-148	39075.1716
-147	39295.8376
-146	39193.0052
-145	39609.8096
-144	39219.7172
-143	39106.5972
-142	38716.2646
-141	38715.5363
-140	39594.8344
-139	38998.304
-138	39325.1536
-137	39047.3724
-136	39547.7313
-135	40127.6612
-134	40147.99
-133	39967.2988
-132	41064.9569
-131	41506.3095
-130	41314.1743
-129	41405.0349
-128	41842.3756
-127	41949.5218
-126	43073.3863
-125	41988.5829
-124	42248.8807
-123	42751.7035
-122	42675.2643
-121	41558.0703
-120	42444.6395
-119	40977.8539
-118	40932.1049
-117	41022.9843
-116	39983.0039
-115	39338.3823
-114	39553.7204
-113	40069.0745
-112	39702.6344
-111	40506.965
-110	39927.4524
-109	39682.2469
-108	40290.8935
-107	40026.9577
-106	40007.341
-105	40409.4999
-104	40389.5698
-103	40551.8766
-102	41467.6842
-101	41504.5479
-100	42102.2914
-99	43142.9204
-98	43134.1125
-97	43513.0017
-96	44240.7325
-95	44578.5389
-94	44785.4285
-93	45892.3004
-92	45467.6612
-91	45150.8638
-90	45698.0429
-89	44207.5656
-88	43638.1238
-87	43681.8554
-86	42171.3265
-85	41105.8673
-84	41163.705
-83	40192.9036
-82	40386.4805
-81	40633.4499
-80	40521.1367
-79	40519.9263
-78	40401.3515
-77	40161.3211
-76	40472.229
-75	41533.5231
-74	41198.7793
-73	41697.003
-72	42729.6025
-71	43178.7248
-70	43842.4631
-69	45381.8273
-68	46085.8836
-67	46584.2385
-66	48580.5714
-65	48573.1853
-64	49532.5497
-63	50580.9849
-62	51488.1943
-61	51140.0479
-60	50752.3986
-59	49782.5435
-58	47705.9912
-57	46593.8306
-56	44636.1183
-55	43089.072
-54	41892.2593
-53	41582.9964
-52	41244.2285
-51	41532.521
-50	40957.8513
-49	40391.3812
-48	40866.8165
-47	40227.228
-46	40698.5397
-45	41357.2408
-44	41046.2492
-43	41508.2158
-42	43469.3561
-41	43005.6127
-40	43933.3601
-39	45479.7582
-38	45890.6988
-37	47082.8494
-36	48221.4517
-35	50849.0224
-34	52695.382
-33	55851.9962
-32	57076.6159
-31	59420.3113
-30	61631.2317
-29	59827.177
-28	57437.5189
-27	53095.4592
-26	46954.3837
-25	46199.9967
-24	48056.6445
-23	47786.0087
-22	49279.8695
-21	52012.7709
-20	51353.3418
-19	52812.4389
-18	54026.4884
-17	54606.1442
-16	55644.5661
-15	57069.4275
-14	58194.2859
-13	61753.2267
-12	67362.4972
-11	69956.6476
-10	74425.2483
-9	78199.7171
-8	82028.5233
-7	91248.0705
-6	101055.2404
-5	116668.2003
-4	132406.2532
-3	155610.382
-2	176926.617
-1	182258.5443
0	1342909.0653
1	182258.5443
2	176926.617
3	155610.382
4	132406.2532
5	116668.2003
6	101055.2404
7	91248.0705
8	82028.5233
9	78199.7171
10	74425.2483
11	69956.6476
12	67362.4972
13	61753.2267
14	58194.2859
15	57069.4275
16	55644.5661
17	54606.1442
18	54026.4884
19	52812.4389
20	51353.3418
21	52012.7709
22	49279.8695
23	47786.0087
24	48056.6445
25	46199.9967
26	46954.3837
27	53095.4592
28	57437.5189
29	59827.177
30	61631.2317
31	59420.3113
32	57076.6159
33	55851.9962
34	52695.382
35	50849.0224
36	48221.4517
37	47082.8494
38	45890.6988
39	45479.7582
40	43933.3601
41	43005.6127
42	43469.3561
43	41508.2158
44	41046.2492
45	41357.2408
46	40698.5397
47	40227.228
48	40866.8165
49	40391.3812
50	40957.8513
51	41532.521
52	41244.2285
53	41582.9964
54	41892.2593
55	43089.072
56	44636.1183
57	46593.8306
58	47705.9912
59	49782.5435
60	50752.3986
61	51140.0479
62	51488.1943
63	50580.9849
64	49532.5497
65	48573.1853
66	48580.5714
67	46584.2385
68	46085.8836
69	45381.8273
70	43842.4631
71	43178.7248
72	42729.6025
73	41697.003
74	41198.7793
75	41533.5231
76	40472.229
77	40161.3211
78	40401.3515
79	40519.9263
80	40521.1367
81	40633.4499
82	40386.4805
83	40192.9036
84	41163.705
85	41105.8673
86	42171.3265
87	43681.8554
88	43638.1238
89	44207.5656
90	45698.0429
91	45150.8638
92	45467.6612
93	45892.3004
94	44785.4285
95	44578.5389
96	44240.7325
97	43513.0017
98	43134.1125
99	43142.9204
100	42102.2914
101	41504.5479
102	41467.6842
103	40551.8766
104	40389.5698
105	40409.4999
106	40007.341
107	40026.9577
108	40290.8935
109	39682.2469
110	39927.4524
111	40506.965
112	39702.6344
113	40069.0745
114	39553.7204
115	39338.3823
116	39983.0039
117	41022.9843
118	40932.1049
119	40977.8539
120	42444.6395
121	41558.0703
122	42675.2643
123	42751.7035
124	42248.8807
125	41988.5829
126	43073.3863
127	41949.5218
128	41842.3756
129	41405.0349
130	41314.1743
131	41506.3095
132	41064.9569
133	39967.2988
134	40147.99
135	40127.6612
136	39547.7313
137	39047.3724
138	39325.1536
139	38998.304
140	39594.8344
141	38715.5363
142	38716.2646
143	39106.5972
144	39219.7172
145	39609.8096
146	39193.0052
147	39295.8376
148	39075.1716
149	39239.7379
150	40347.1772
151	39495.6274
152	40716.1527
153	40010.3813
154	40684.7338
155	40103.4842
156	41134.6018
157	40021.4964
158	40019.2856
159	40635.2665
160	39472.4841
161	39573.5447
162	39415.8126
163	39519.1206
164	39414.7129
165	39909.0747
166	38772.3203
167	38766.9304
168	38176.3981
169	38123.638
170	37885.3966
171	38210.9381
172	37507.7204
173	37833.6733
174	37171.7911
175	37136.4362
176	37696.3314
177	38342.0966
178	37476.0433
179	37478.1559
180	38227.0054
181	37938.0182
182	38294.3626
183	38487.0225
184	38322.2423
185	38541.2189
186	38512.1687
187	38235.6351
188	38188.1353
189	38272.3285
190	38080.4146
191	38473.512
192	38068.852
193	38083.8983
194	38075.8338
195	37877.9911
196	37343.4655
197	36837.2148
198	37324.7518
199	37413.8765
200	18490.3762
