Position	Value
-200	44140.9509
-199	88223.1744
-198	89445.1688
-197	89317.4274
-196	88724.4403
-195	89832.9067
-194	90285.8166
-193	89873.6741
-192	90568.3759
-191	89711.0234
-190	90410.7283
-189	90181.172
-188	90012.6992
-187	89430.7851
-186	90667.1716
-185	89955.3128
-184	90934.3576
-183	91626.4902
-182	90496.2274
-181	91760.7275
-180	91100.6841
-179	89032.1072
-178	89888.6007
-177	90941.4876
-176	89655.7057
-175	90104.0965
-174	91291.1869
-173	90495.6714
-172	90483.1825
-171	90658.9993
-170	90238.4497
-169	92041.2773
-168	91113.3351
-167	91166.2829
-166	91773.1537
-165	92285.4307
-164	91591.9176
-163	92240.4485
-162	92404.6596
-161	91517.6316
-160	91982.6021
-159	93149.374
-158	91679.3871
-157	93112.2793
-156	93571.1409
-155	93274.0972
-154	92189.4271
-153	92801.6178
-152	93715.0021
-151	93464.3456
-150	93230.9404
-149	93268.6607
-148	92856.1565
-147	94053.2504
-146	93403.2215
-145	94674.6354
-144	95367.3418
-143	93405.25
-142	92961.7436
-141	92775.9323
-140	94458.1765
-139	93877.2701
-138	94504.9253
-137	94144.9141
-136	94512.7043
-135	95179.716
-134	93813.61
-133	93584.776
-132	96540.4366
-131	95884.0272
-130	96798.5209
-129	96644.0571
-128	96899.234
-127	96352.4127
-126	97601.9968
-125	97478.1288
-124	95824.4141
-123	97260.02
-122	96180.0579
-121	96120.7005
-120	96261.1505
-119	94938.8966
-118	95504.3726
-117	96223.4338
-116	95457.3033
-115	95970.7089
-114	96068.3433
-113	95914.4959
-112	95557.1015
-111	96551.3251
-110	96562.3017
-109	95961.9224
-108	96260.5741
-107	95722.036
-106	95681.0198
-105	96343.31
-104	96477.2496
-103	96015.9014
-102	96933.4185
-101	98012.3704
-100	97558.8971
-99	98607.1585
-98	99004.5232
-97	97135.4154
-96	99275.711
-95	99549.2772
-94	100159.9899
-93	99008.057
-92	98945.5845
-91	99206.5392
-90	98728.3899
-89	99339.0939
-88	98580.9615
-87	98519.9606
-86	98001.3087
-85	96886.7822
-84	97821.9445
-83	96433.1818
-82	97504.4429
-81	98099.7096
-80	98507.98
-79	97404.3026
-78	97650.7087
-77	99834.257
-76	98630.2196
-75	99540.228
-74	99737.7667
-73	99432.0181
-72	101169.4946
-71	100564.0149
-70	101494.4363
-69	103170.532
-68	101977.5364
-67	102471.1603
-66	104998.9178
-65	105113.5359
-64	104361.0
-63	105999.0939
-62	106026.7003
-61	105764.7209
-60	105808.2836
-59	106581.9395
-58	106352.8848
-57	104017.0864
-56	103488.044
-55	102805.3118
-54	103043.864
-53	102193.2395
-52	104019.1341
-51	103401.6099
-50	103739.4996
-49	102980.8035
-48	104337.3103
-47	103723.433
-46	102480.9537
-45	103880.337
-44	102181.8759
-43	103192.7916
-42	106022.8477
-41	104668.103
-40	105626.4218
-39	105585.7707
-38	105470.3913
-37	106764.3517
-36	110706.1887
-35	109541.7747
-34	110377.8356
-33	112847.496
-32	113961.3631
-31	112667.9099
-30	114126.4046
-29	114885.422
-28	112802.467
-27	108783.0917
-26	105965.4062
-25	104619.8478
-24	108279.1046
-23	111372.4544
-22	112876.2057
-21	116120.0583
-20	118924.1296
-19	121028.0042
-18	123472.0326
-17	125800.6193
-16	126131.7688
-15	130146.6225
-14	131341.9189
-13	137486.8495
-12	143705.832
-11	148813.0752
-10	153549.7654
-9	161660.6416
-8	169193.6753
-7	178321.0655
-6	190367.6725
-5	207880.3524
-4	228637.9469
-3	256716.6392
-2	257006.3575
-1	261102.1326
0	1039749.6888
1	261102.1326
2	257006.3575
3	256716.6392
4	228637.9469
5	207880.3524
6	190367.6725
7	178321.0655
8	169193.6753
9	161660.6416
10	153549.7654
11	148813.0752
12	143705.832
13	137486.8495
14	131341.9189
15	130146.6225
16	126131.7688
17	125800.6193
18	123472.0326
19	121028.0042
20	118924.1296
21	116120.0583
22	112876.2057
23	111372.4544
24	108279.1046
25	104619.8478
26	105965.4062
27	108783.0917
28	112802.467
29	114885.422
30	114126.4046
31	112667.9099
32	113961.3631
33	112847.496
34	110377.8356
35	109541.7747
36	110706.1887
37	106764.3517
38	105470.3913
39	105585.7707
40	105626.4218
41	104668.103
42	106022.8477
43	103192.7916
44	102181.8759
45	103880.337
46	102480.9537
47	103723.433
48	104337.3103
49	102980.8035
50	103739.4996
51	103401.6099
52	104019.1341
53	102193.2395
54	103043.864
55	102805.3118
56	103488.044
57	104017.0864
58	106352.8848
59	106581.9395
60	105808.2836
61	105764.7209
62	106026.7003
63	105999.0939
64	104361.0
65	105113.5359
66	104998.9178
67	102471.1603
68	101977.5364
69	103170.532
70	101494.4363
71	100564.0149
72	101169.4946
73	99432.0181
74	99737.7667
75	99540.228
76	98630.2196
77	99834.257
78	97650.7087
79	97404.3026
80	98507.98
81	98099.7096
82	97504.4429
83	96433.1818
84	97821.9445
85	96886.7822
86	98001.3087
87	98519.9606
88	98580.9615
89	99339.0939
90	98728.3899
91	99206.5392
92	98945.5845
93	99008.057
94	100159.9899
95	99549.2772
96	99275.711
97	97135.4154
98	99004.5232
99	98607.1585
100	97558.8971
101	98012.3704
102	96933.4185
103	96015.9014
104	96477.2496
105	96343.31
106	95681.0198
107	95722.036
108	96260.5741
109	95961.9224
110	96562.3017
111	96551.3251
112	95557.1015
113	95914.4959
114	96068.3433
115	95970.7089
116	95457.3033
117	96223.4338
118	95504.3726
119	94938.8966
120	96261.1505
121	96120.7005
122	96180.0579
123	97260.02
124	95824.4141
125	97478.1288
126	97601.9968
127	96352.4127
128	96899.234
129	96644.0571
130	96798.5209
131	95884.0272
132	96540.4366
133	93584.776
134	93813.61
135	95179.716
136	94512.7043
137	94144.9141
138	94504.9253
139	93877.2701
140	94458.1765
141	92775.9323
142	92961.7436
143	93405.25
144	95367.3418
145	94674.6354
146	93403.2215
147	94053.2504
148	92856.1565
149	93268.6607
150	93230.9404
151	93464.3456
152	93715.0021
153	92801.6178
154	92189.4271
155	93274.0972
156	93571.1409
157	93112.2793
158	91679.3871
159	93149.374
160	91982.6021
161	91517.6316
162	92404.6596
163	92240.4485
164	91591.9176
165	92285.4307
166	91773.1537
167	91166.2829
168	91113.3351
169	92041.2773
170	90238.4497
171	90658.9993
172	90483.1825
173	90495.6714
174	91291.1869
175	90104.0965
176	89655.7057
177	90941.4876
178	89888.6007
179	89032.1072
180	91100.6841
181	91760.7275
182	90496.2274
183	91626.4902
184	90934.3576
185	89955.3128
186	90667.1716
187	89430.7851
188	90012.6992
189	90181.172
190	90410.7283
191	89711.0234
192	90568.3759
193	89873.6741
194	90285.8166
195	89832.9067
196	88724.4403
197	89317.4274
198	89445.1688
199	88223.1744
200	44140.9509
