Position	Value
-200	42631.5137
-199	85079.3905
-198	85602.7503
-197	85561.275
-196	84975.5633
-195	86756.4074
-194	86210.551
-193	85967.0045
-192	86436.582
-191	85979.7285
-190	87628.0673
-189	87504.5705
-188	87590.035
-187	86601.1687
-186	87095.0988
-185	86742.5745
-184	87838.2427
-183	87488.568
-182	86756.0337
-181	88411.0944
-180	88468.9201
-179	86436.2783
-178	88491.474
-177	88817.543
-176	88343.9162
-175	89185.542
-174	89134.4502
-173	89053.4202
-172	90245.6516
-171	89688.8733
-170	88904.9128
-169	91034.6762
-168	90996.8196
-167	90486.8317
-166	90969.7874
-165	92054.954
-164	91433.7882
-163	91846.5317
-162	91842.8309
-161	90613.9145
-160	92443.1832
-159	91610.1421
-158	92414.1358
-157	92395.8503
-156	93776.0385
-155	92243.3813
-154	92120.3067
-153	91818.6434
-152	93199.8774
-151	93186.8287
-150	93023.9906
-149	92321.4773
-148	92768.5073
-147	93438.6241
-146	93050.3593
-145	93272.8773
-144	93245.415
-143	93401.3987
-142	93651.0828
-141	91913.0909
-140	93548.4314
-139	94449.051
-138	94314.012
-137	93753.7195
-136	94588.5617
-135	95594.4843
-134	94803.2925
-133	94157.0784
-132	96256.0531
-131	96298.4344
-130	95524.574
-129	96785.08
-128	95775.6197
-127	96592.9256
-126	97416.4316
-125	95297.3902
-124	96675.3064
-123	96737.7832
-122	95545.0803
-121	94799.2784
-120	96047.6768
-119	94944.1262
-118	95277.2182
-117	94964.5715
-116	93635.1868
-115	94292.0943
-114	94960.0496
-113	96313.5837
-112	93677.1889
-111	95444.7836
-110	95851.1782
-109	95142.117
-108	96606.4891
-107	96456.2682
-106	95793.3999
-105	98025.8398
-104	96713.3822
-103	96127.2697
-102	98239.3447
-101	98008.7908
-100	97649.4874
-99	99732.8875
-98	99529.6926
-97	98725.4702
-96	100332.7202
-95	99712.5038
-94	99227.9415
-93	100810.398
-92	99627.5388
-91	99275.6906
-90	98799.3496
-89	98657.9659
-88	98813.1518
-87	98895.7817
-86	98191.3406
-85	96205.1039
-84	98658.7978
-83	96145.5081
-82	97330.4388
-81	98849.4712
-80	97635.1263
-79	97878.5207
-78	98170.4191
-77	99229.1175
-76	99325.5954
-75	100432.4587
-74	99054.3483
-73	100906.3133
-72	101246.5689
-71	100939.59
-70	102985.4816
-69	105045.5435
-68	103525.9348
-67	105733.2675
-66	107651.8558
-65	108628.4162
-64	107997.2457
-63	108562.5709
-62	108837.5746
-61	108438.7504
-60	107102.9369
-59	106521.4081
-58	106948.4186
-57	104732.3472
-56	103538.4205
-55	104194.4577
-54	102373.437
-53	101984.0022
-52	103600.0313
-51	101843.1004
-50	101556.2947
-49	103603.9166
-48	103872.253
-47	102396.2359
-46	102220.0905
-45	104439.5987
-44	103989.8367
-43	104207.3914
-42	105813.2719
-41	105169.6876
-40	106798.3349
-39	107394.1986
-38	108682.674
-37	109511.9358
-36	112680.4749
-35	113942.7799
-34	115402.5178
-33	117555.3496
-32	118731.1208
-31	119032.2602
-30	119260.5669
-29	118702.7516
-28	119246.9375
-27	113397.5951
-26	109670.6094
-25	109883.6509
-24	111082.5768
-23	110709.5019
-22	111657.979
-21	116101.5333
-20	114175.8758
-19	115758.2282
-18	118264.5548
-17	118764.6493
-16	118464.3625
-15	119562.1246
-14	121254.6813
-13	122582.2895
-12	127076.0354
-11	128646.8108
-10	126764.6579
-9	131456.76
-8	132298.0524
-7	136662.6533
-6	138126.3959
-5	142798.1159
-4	154815.3237
-3	165857.8044
-2	142836.1821
-1	144573.3494
0	674266.0777
1	144573.3494
2	142836.1821
3	165857.8044
4	154815.3237
5	142798.1159
6	138126.3959
7	136662.6533
8	132298.0524
9	131456.76
10	126764.6579
11	128646.8108
12	127076.0354
13	122582.2895
14	121254.6813
15	119562.1246
16	118464.3625
17	118764.6493
18	118264.5548
19	115758.2282
20	114175.8758
21	116101.5333
22	111657.979
23	110709.5019
24	111082.5768
25	109883.6509
26	109670.6094
27	113397.5951
28	119246.9375
29	118702.7516
30	119260.5669
31	119032.2602
32	118731.1208
33	117555.3496
34	115402.5178
35	113942.7799
36	112680.4749
37	109511.9358
38	108682.674
39	107394.1986
40	106798.3349
41	105169.6876
42	105813.2719
43	104207.3914
44	103989.8367
45	104439.5987
46	102220.0905
47	102396.2359
48	103872.253
49	103603.9166
50	101556.2947
51	101843.1004
52	103600.0313
53	101984.0022
54	102373.437
55	104194.4577
56	103538.4205
57	104732.3472
58	106948.4186
59	106521.4081
60	107102.9369
61	108438.7504
62	108837.5746
63	108562.5709
64	107997.2457
65	108628.4162
66	107651.8558
67	105733.2675
68	103525.9348
69	105045.5435
70	102985.4816
71	100939.59
72	101246.5689
73	100906.3133
74	99054.3483
75	100432.4587
76	99325.5954
77	99229.1175
78	98170.4191
79	97878.5207
80	97635.1263
81	98849.4712
82	97330.4388
83	96145.5081
84	98658.7978
85	96205.1039
86	98191.3406
87	98895.7817
88	98813.1518
89	98657.9659
90	98799.3496
91	99275.6906
92	99627.5388
93	100810.398
94	99227.9415
95	99712.5038
96	100332.7202
97	98725.4702
98	99529.6926
99	99732.8875
100	97649.4874
101	98008.7908
102	98239.3447
103	96127.2697
104	96713.3822
105	98025.8398
106	95793.3999
107	96456.2682
108	96606.4891
109	95142.117
110	95851.1782
111	95444.7836
112	93677.1889
113	96313.5837
114	94960.0496
115	94292.0943
116	93635.1868
117	94964.5715
118	95277.2182
119	94944.1262
120	96047.6768
121	94799.2784
122	95545.0803
123	96737.7832
124	96675.3064
125	95297.3902
126	97416.4316
127	96592.9256
128	95775.6197
129	96785.08
130	95524.574
131	96298.4344
132	96256.0531
133	94157.0784
134	94803.2925
135	95594.4843
136	94588.5617
137	93753.7195
138	94314.012
139	94449.051
140	93548.4314
141	91913.0909
142	93651.0828
143	93401.3987
144	93245.415
145	93272.8773
146	93050.3593
147	93438.6241
148	92768.5073
149	92321.4773
150	93023.9906
151	93186.8287
152	93199.8774
153	91818.6434
154	92120.3067
155	92243.3813
156	93776.0385
157	92395.8503
158	92414.1358
159	91610.1421
160	92443.1832
161	90613.9145
162	91842.8309
163	91846.5317
164	91433.7882
165	92054.954
166	90969.7874
167	90486.8317
168	90996.8196
169	91034.6762
170	88904.9128
171	89688.8733
172	90245.6516
173	89053.4202
174	89134.4502
175	89185.542
176	88343.9162
177	88817.543
178	88491.474
179	86436.2783
180	88468.9201
181	88411.0944
182	86756.0337
183	87488.568
184	87838.2427
185	86742.5745
186	87095.0988
187	86601.1687
188	87590.035
189	87504.5705
190	87628.0673
191	85979.7285
192	86436.582
193	85967.0045
194	86210.551
195	86756.4074
196	84975.5633
197	85561.275
198	85602.7503
199	85079.3905
200	42631.5137
