Position	Value
-200	9954.77
-199	9408.91
-198	9650.53
-197	9883.65
-196	9698.33
-195	9662.86
-194	9571.29
-193	9746.56
-192	9615.6
-191	9662.43
-190	9709.05
-189	9757.98
-188	10106.2
-187	10238.1
-186	10083
-185	9712.96
-184	10108.2
-183	10240.7
-182	9796.48
-181	9830.22
-180	9854.64
-179	9537.86
-178	9726.28
-177	10109.3
-176	9510.29
-175	9769.6
-174	9683.58
-173	9687.55
-172	9903.5
-171	9966.86
-170	9708.18
-169	10001.1
-168	9979.87
-167	10294
-166	10206.8
-165	10212.8
-164	10607.1
-163	10246.5
-162	10290.2
-161	10126.5
-160	10113
-159	10404.1
-158	10156.6
-157	10451.5
-156	10752.3
-155	10613.9
-154	10593
-153	10288.1
-152	10715.6
-151	10229.7
-150	10094.4
-149	10249.8
-148	10113.5
-147	10123.1
-146	9976.75
-145	10165.8
-144	10143.1
-143	10009.4
-142	9770.08
-141	10318.6
-140	10194.1
-139	10122.2
-138	9995.14
-137	10302.6
-136	10356.8
-135	10213.5
-134	10127.1
-133	10267.1
-132	10366.4
-131	10475.4
-130	10222.9
-129	10643.6
-128	10668.8
-127	10641
-126	10872.7
-125	10773.8
-124	11077.2
-123	10894.2
-122	10890.1
-121	10755.8
-120	10610.7
-119	10472.1
-118	10578.6
-117	10287.8
-116	10213.3
-115	10054.3
-114	10078.8
-113	9974
-112	9823.89
-111	10262.9
-110	10018.7
-109	10071.3
-108	10122.8
-107	10284.9
-106	10125.3
-105	9969.7
-104	10559.6
-103	10236.4
-102	11191.4
-101	11009
-100	10983
-99	11287.8
-98	11143.2
-97	11200.5
-96	11317.4
-95	11320.6
-94	11800.3
-93	11825.2
-92	11882.6
-91	12041.6
-90	11480.8
-89	11693.2
-88	11387.4
-87	11219.3
-86	11055.8
-85	10386.3
-84	10642.7
-83	9730.64
-82	10074.1
-81	10158.7
-80	9999.71
-79	10237.1
-78	9980.63
-77	9776.08
-76	10287
-75	10372.1
-74	10319.9
-73	10485.9
-72	10613.4
-71	10628.9
-70	11045.7
-69	11356.6
-68	11276.1
-67	11603.1
-66	11945
-65	12293.4
-64	12598.6
-63	13376.3
-62	13022.4
-61	12823.8
-60	12823.2
-59	13001
-58	13082.2
-57	12501.8
-56	12057.7
-55	11663.1
-54	11204.7
-53	11350.1
-52	10754.3
-51	10908.8
-50	10951.7
-49	10406.6
-48	10411.1
-47	11080
-46	10624.1
-45	10788.4
-44	10936.2
-43	10709.7
-42	11422
-41	11133.6
-40	11317.7
-39	12175.5
-38	11776.7
-37	12394.1
-36	12773
-35	13098.7
-34	13801.9
-33	14117.7
-32	14367.5
-31	14678.6
-30	15121.5
-29	15594.2
-28	15336.8
-27	13842.6
-26	12309.1
-25	11596.7
-24	11743.2
-23	11508.3
-22	12021.9
-21	12047.4
-20	12336.9
-19	12707.3
-18	12751.5
-17	13310.2
-16	14375.8
-15	14977.7
-14	15483.7
-13	16919.9
-12	19219.7
-11	21032.6
-10	23244.9
-9	25204.4
-8	27342.4
-7	31701.3
-6	35698.9
-5	40990.7
-4	46309.9
-3	51774.7
-2	60461.5
-1	59331.4
0	511648
1	59331.4
2	60461.5
3	51774.7
4	46309.9
5	40990.7
6	35698.9
7	31701.3
8	27342.4
9	25204.4
10	23244.9
11	21032.6
12	19219.7
13	16919.9
14	15483.7
15	14977.7
16	14375.8
17	13310.2
18	12751.5
19	12707.3
20	12336.9
21	12047.4
22	12021.9
23	11508.3
24	11743.2
25	11596.7
26	12309.1
27	13842.6
28	15336.8
29	15594.2
30	15121.5
31	14678.6
32	14367.5
33	14117.7
34	13801.9
35	13098.7
36	12773
37	12394.1
38	11776.7
39	12175.5
40	11317.7
41	11133.6
42	11422
43	10709.7
44	10936.2
45	10788.4
46	10624.1
47	11080
48	10411.1
49	10406.6
50	10951.7
51	10908.8
52	10754.3
53	11350.1
54	11204.7
55	11663.1
56	12057.7
57	12501.8
58	13082.2
59	13001
60	12823.2
61	12823.8
62	13022.4
63	13376.3
64	12598.6
65	12293.4
66	11945
67	11603.1
68	11276.1
69	11356.6
70	11045.7
71	10628.9
72	10613.4
73	10485.9
74	10319.9
75	10372.1
76	10287
77	9776.08
78	9980.63
79	10237.1
80	9999.71
81	10158.7
82	10074.1
83	9730.64
84	10642.7
85	10386.3
86	11055.8
87	11219.3
88	11387.4
89	11693.2
90	11480.8
91	12041.6
92	11882.6
93	11825.2
94	11800.3
95	11320.6
96	11317.4
97	11200.5
98	11143.2
99	11287.8
100	10983
101	11009
102	11191.4
103	10236.4
104	10559.6
105	9969.7
106	10125.3
107	10284.9
108	10122.8
109	10071.3
110	10018.7
111	10262.9
112	9823.89
113	9974
114	10078.8
115	10054.3
116	10213.3
117	10287.8
118	10578.6
119	10472.1
120	10610.7
121	10755.8
122	10890.1
123	10894.2
124	11077.2
125	10773.8
126	10872.7
127	10641
128	10668.8
129	10643.6
130	10222.9
131	10475.4
132	10366.4
133	10267.1
134	10127.1
135	10213.5
136	10356.8
137	10302.6
138	9995.14
139	10122.2
140	10194.1
141	10318.6
142	9770.08
143	10009.4
144	10143.1
145	10165.8
146	9976.75
147	10123.1
148	10113.5
149	10249.8
150	10094.4
151	10229.7
152	10715.6
153	10288.1
154	10593
155	10613.9
156	10752.3
157	10451.5
158	10156.6
159	10404.1
160	10113
161	10126.5
162	10290.2
163	10246.5
164	10607.1
165	10212.8
166	10206.8
167	10294
168	9979.87
169	10001.1
170	9708.18
171	9966.86
172	9903.5
173	9687.55
174	9683.58
175	9769.6
176	9510.29
177	10109.3
178	9726.28
179	9537.86
180	9854.64
181	9830.22
182	9796.48
183	10240.7
184	10108.2
185	9712.96
186	10083
187	10238.1
188	10106.2
189	9757.98
190	9709.05
191	9662.43
192	9615.6
193	9746.56
194	9571.29
195	9662.86
196	9698.33
197	9883.65
198	9650.53
199	9408.91
200	9954.77
