Position	Value
-200	144745.5684
-199	145040.1808
-198	144921.5618
-197	145019.1399
-196	144123.4244
-195	145510.1533
-194	144204.5093
-193	144688.9246
-192	143916.7301
-191	144040.0126
-190	145251.6321
-189	144462.3748
-188	146236.2205
-187	145569.4449
-186	145842.0868
-185	144821.0197
-184	145846.1485
-183	145275.4979
-182	144111.8197
-181	146315.1929
-180	145024.8191
-179	143114.3061
-178	145862.6534
-177	146439.1675
-176	145608.3923
-175	145196.0336
-174	147603.7729
-173	146479.7713
-172	146661.5105
-171	148388.8385
-170	145759.8951
-169	148580.0016
-168	147485.5396
-167	147036.3359
-166	147801.6411
-165	149790.8248
-164	147615.9404
-163	147790.5497
-162	149401.2819
-161	148214.1754
-160	148187.065
-159	149264.7399
-158	148399.6039
-157	147663.2833
-156	150055.3906
-155	147599.4625
-154	146951.4616
-153	148689.7221
-152	150184.5749
-151	149211.8011
-150	148578.4312
-149	147118.181
-148	148186.5887
-147	149283.5449
-146	147564.0434
-145	149137.5836
-144	149927.2968
-143	148552.4428
-142	150003.1507
-141	148890.0639
-140	150541.9565
-139	150756.5945
-138	148350.0175
-137	151130.2967
-136	150510.9197
-135	152268.48
-134	150693.9359
-133	151317.9765
-132	152713.5782
-131	153166.7609
-130	155122.325
-129	153818.8167
-128	152632.5656
-127	154871.0217
-126	156261.2971
-125	153365.7367
-124	152831.1904
-123	153486.713
-122	152129.1154
-121	152522.8481
-120	153716.477
-119	151800.7494
-118	152809.874
-117	153063.8187
-116	150066.773
-115	150880.329
-114	153813.839
-113	152951.3968
-112	151296.1539
-111	153509.9527
-110	154271.453
-109	153264.854
-108	154597.7589
-107	155067.988
-106	153835.8557
-105	155522.335
-104	155201.7206
-103	153514.7174
-102	156555.0416
-101	155789.1916
-100	157069.5692
-99	159040.8778
-98	160014.5452
-97	158533.5611
-96	160641.9913
-95	158425.7811
-94	161062.8477
-93	161149.0669
-92	159781.3972
-91	157461.7274
-90	158174.9975
-89	155967.1685
-88	157352.5698
-87	157830.1071
-86	157303.6841
-85	154194.2475
-84	157339.1672
-83	153014.3858
-82	155231.0972
-81	156748.1454
-80	155314.5346
-79	157102.6938
-78	156580.3599
-77	157230.1336
-76	158357.8668
-75	160979.1128
-74	158559.419
-73	160586.6978
-72	161570.3663
-71	161106.7383
-70	165154.2622
-69	165269.8197
-68	165635.8426
-67	166535.8396
-66	170661.5137
-65	170399.7508
-64	169693.0815
-63	171780.7709
-62	172758.445
-61	170375.7684
-60	168025.6751
-59	167907.531
-58	166768.1251
-57	165326.9422
-56	162189.6783
-55	162728.0814
-54	160804.6987
-53	161216.821
-52	161485.7814
-51	162538.9054
-50	159248.0766
-49	160224.4927
-48	163109.6856
-47	160328.5283
-46	158871.8061
-45	160855.4502
-44	159571.0159
-43	160303.8562
-42	165052.3741
-41	164282.4884
-40	163419.5657
-39	165718.5753
-38	167607.5367
-37	170081.0495
-36	174383.5684
-35	175298.8646
-34	177624.9994
-33	181476.9148
-32	181303.8519
-31	186671.3919
-30	191723.1418
-29	182512.0387
-28	172967.8838
-27	165818.3539
-26	165824.2072
-25	165238.3523
-24	168132.6843
-23	168591.7526
-22	170781.8803
-21	177469.0956
-20	180071.7625
-19	181548.1043
-18	185402.0177
-17	185653.1645
-16	183552.2036
-15	188379.2762
-14	188974.6858
-13	195679.0264
-12	205084.3358
-11	208841.6311
-10	207565.1155
-9	215340.2133
-8	216865.4443
-7	225551.8754
-6	227872.8962
-5	240428.89
-4	255181.4597
-3	267356.3957
-2	234364.755
-1	232834.566
0	1175524.728
1	232834.566
2	234364.755
3	267356.3957
4	255181.4597
5	240428.89
6	227872.8962
7	225551.8754
8	216865.4443
9	215340.2133
10	207565.1155
11	208841.6311
12	205084.3358
13	195679.0264
14	188974.6858
15	188379.2762
16	183552.2036
17	185653.1645
18	185402.0177
19	181548.1043
20	180071.7625
21	177469.0956
22	170781.8803
23	168591.7526
24	168132.6843
25	165238.3523
26	165824.2072
27	165818.3539
28	172967.8838
29	182512.0387
30	191723.1418
31	186671.3919
32	181303.8519
33	181476.9148
34	177624.9994
35	175298.8646
36	174383.5684
37	170081.0495
38	167607.5367
39	165718.5753
40	163419.5657
41	164282.4884
42	165052.3741
43	160303.8562
44	159571.0159
45	160855.4502
46	158871.8061
47	160328.5283
48	163109.6856
49	160224.4927
50	159248.0766
51	162538.9054
52	161485.7814
53	161216.821
54	160804.6987
55	162728.0814
56	162189.6783
57	165326.9422
58	166768.1251
59	167907.531
60	168025.6751
61	170375.7684
62	172758.445
63	171780.7709
64	169693.0815
65	170399.7508
66	170661.5137
67	166535.8396
68	165635.8426
69	165269.8197
70	165154.2622
71	161106.7383
72	161570.3663
73	160586.6978
74	158559.419
75	160979.1128
76	158357.8668
77	157230.1336
78	156580.3599
79	157102.6938
80	155314.5346
81	156748.1454
82	155231.0972
83	153014.3858
84	157339.1672
85	154194.2475
86	157303.6841
87	157830.1071
88	157352.5698
89	155967.1685
90	158174.9975
91	157461.7274
92	159781.3972
93	161149.0669
94	161062.8477
95	158425.7811
96	160641.9913
97	158533.5611
98	160014.5452
99	159040.8778
100	157069.5692
101	155789.1916
102	156555.0416
103	153514.7174
104	155201.7206
105	155522.335
106	153835.8557
107	155067.988
108	154597.7589
109	153264.854
110	154271.453
111	153509.9527
112	151296.1539
113	152951.3968
114	153813.839
115	150880.329
116	150066.773
117	153063.8187
118	152809.874
119	151800.7494
120	153716.477
121	152522.8481
122	152129.1154
123	153486.713
124	152831.1904
125	153365.7367
126	156261.2971
127	154871.0217
128	152632.5656
129	153818.8167
130	155122.325
131	153166.7609
132	152713.5782
133	151317.9765
134	150693.9359
135	152268.48
136	150510.9197
137	151130.2967
138	148350.0175
139	150756.5945
140	150541.9565
141	148890.0639
142	150003.1507
143	148552.4428
144	149927.2968
145	149137.5836
146	147564.0434
147	149283.5449
148	148186.5887
149	147118.181
150	148578.4312
151	149211.8011
152	150184.5749
153	148689.7221
154	146951.4616
155	147599.4625
156	150055.3906
157	147663.2833
158	148399.6039
159	149264.7399
160	148187.065
161	148214.1754
162	149401.2819
163	147790.5497
164	147615.9404
165	149790.8248
166	147801.6411
167	147036.3359
168	147485.5396
169	148580.0016
170	145759.8951
171	148388.8385
172	146661.5105
173	146479.7713
174	147603.7729
175	145196.0336
176	145608.3923
177	146439.1675
178	145862.6534
179	143114.3061
180	145024.8191
181	146315.1929
182	144111.8197
183	145275.4979
184	145846.1485
185	144821.0197
186	145842.0868
187	145569.4449
188	146236.2205
189	144462.3748
190	145251.6321
191	144040.0126
192	143916.7301
193	144688.9246
194	144204.5093
195	145510.1533
196	144123.4244
197	145019.1399
198	144921.5618
199	145040.1808
200	144745.5684
