Position	Value
-200	257.3894
-199	448.1163
-198	499.6957
-197	451.9991
-196	440.4054
-195	479.6955
-194	561.452
-193	530.5163
-192	526.4771
-191	555.5231
-190	539.9089
-189	495.2755
-188	463.8568
-187	489.5726
-186	492.6233
-185	550.4772
-184	576.5899
-183	570.7023
-182	492.8847
-181	542.8612
-180	591.2726
-179	652.6183
-178	519.8689
-177	531.9166
-176	613.773
-175	694.1042
-174	554.6321
-173	550.0348
-172	486.3162
-171	587.477
-170	556.8168
-169	614.2829
-168	576.7149
-167	601.9881
-166	573.2366
-165	587.3737
-164	537.1265
-163	560.3243
-162	614.2526
-161	504.2043
-160	517.5885
-159	533.3401
-158	636.3601
-157	605.9499
-156	621.533
-155	556.6719
-154	560.4186
-153	607.2923
-152	583.7558
-151	622.2571
-150	512.4049
-149	565.4032
-148	527.6864
-147	537.5419
-146	613.3958
-145	498.9137
-144	562.8741
-143	610.1547
-142	593.9762
-141	590.7857
-140	517.4103
-139	581.1585
-138	603.7803
-137	694.3162
-136	692.5204
-135	624.5177
-134	554.9366
-133	539.4543
-132	525.4693
-131	483.6231
-130	552.0456
-129	614.1249
-128	590.1927
-127	638.4398
-126	577.797
-125	545.4829
-124	598.1826
-123	554.081
-122	612.9704
-121	589.6908
-120	583.2489
-119	577.9145
-118	621.1012
-117	599.6308
-116	642.3475
-115	563.1284
-114	627.203
-113	642.9974
-112	630.3595
-111	591.0449
-110	623.4111
-109	578.3207
-108	622.1496
-107	723.8161
-106	583.8967
-105	604.8998
-104	697.4885
-103	588.0149
-102	599.907
-101	628.9225
-100	592.9589
-99	643.8668
-98	641.2085
-97	652.871
-96	778.8552
-95	626.2811
-94	543.0568
-93	568.014
-92	555.319
-91	575.4432
-90	582.1681
-89	538.5027
-88	472.9094
-87	456.5588
-86	468.4665
-85	556.6301
-84	649.0324
-83	590.0887
-82	608.2368
-81	617.92
-80	689.1901
-79	592.8158
-78	726.2315
-77	585.1308
-76	586.1576
-75	507.3001
-74	455.1149
-73	533.1316
-72	498.3172
-71	612.3144
-70	591.3905
-69	614.5682
-68	642.6745
-67	607.6086
-66	650.5422
-65	725.0165
-64	788.4123
-63	712.8248
-62	706.5131
-61	694.2771
-60	824.4896
-59	888.986
-58	696.9465
-57	709.3751
-56	680.4714
-55	649.4404
-54	634.7445
-53	770.6933
-52	539.6017
-51	749.4789
-50	802.6646
-49	650.2438
-48	736.2513
-47	697.3476
-46	660.411
-45	685.552
-44	572.4444
-43	620.367
-42	684.9973
-41	681.2444
-40	666.4813
-39	758.6758
-38	764.3479
-37	718.1601
-36	731.9285
-35	646.713
-34	706.145
-33	845.336
-32	894.3639
-31	636.5076
-30	809.2804
-29	864.698
-28	734.6075
-27	755.5497
-26	775.2
-25	665.521
-24	620.2427
-23	753.3888
-22	711.2195
-21	880.355
-20	855.4194
-19	787.9938
-18	855.4795
-17	847.4326
-16	765.8631
-15	909.8415
-14	894.8514
-13	1004.2237
-12	1208.9553
-11	1137.7942
-10	997.0092
-9	1258.9199
-8	1256.8269
-7	1205.8347
-6	1596.2329
-5	1809.8759
-4	2111.9637
-3	2951.0283
-2	3483.1649
-1	8250.4025
0	63858.4773
1	8250.4025
2	3483.1649
3	2951.0283
4	2111.9637
5	1809.8759
6	1596.2329
7	1205.8347
8	1256.8269
9	1258.9199
10	997.0092
11	1137.7942
12	1208.9553
13	1004.2237
14	894.8514
15	909.8415
16	765.8631
17	847.4326
18	855.4795
19	787.9938
20	855.4194
21	880.355
22	711.2195
23	753.3888
24	620.2427
25	665.521
26	775.2
27	755.5497
28	734.6075
29	864.698
30	809.2804
31	636.5076
32	894.3639
33	845.336
34	706.145
35	646.713
36	731.9285
37	718.1601
38	764.3479
39	758.6758
40	666.4813
41	681.2444
42	684.9973
43	620.367
44	572.4444
45	685.552
46	660.411
47	697.3476
48	736.2513
49	650.2438
50	802.6646
51	749.4789
52	539.6017
53	770.6933
54	634.7445
55	649.4404
56	680.4714
57	709.3751
58	696.9465
59	888.986
60	824.4896
61	694.2771
62	706.5131
63	712.8248
64	788.4123
65	725.0165
66	650.5422
67	607.6086
68	642.6745
69	614.5682
70	591.3905
71	612.3144
72	498.3172
73	533.1316
74	455.1149
75	507.3001
76	586.1576
77	585.1308
78	726.2315
79	592.8158
80	689.1901
81	617.92
82	608.2368
83	590.0887
84	649.0324
85	556.6301
86	468.4665
87	456.5588
88	472.9094
89	538.5027
90	582.1681
91	575.4432
92	555.319
93	568.014
94	543.0568
95	626.2811
96	778.8552
97	652.871
98	641.2085
99	643.8668
100	592.9589
101	628.9225
102	599.907
103	588.0149
104	697.4885
105	604.8998
106	583.8967
107	723.8161
108	622.1496
109	578.3207
110	623.4111
111	591.0449
112	630.3595
113	642.9974
114	627.203
115	563.1284
116	642.3475
117	599.6308
118	621.1012
119	577.9145
120	583.2489
121	589.6908
122	612.9704
123	554.081
124	598.1826
125	545.4829
126	577.797
127	638.4398
128	590.1927
129	614.1249
130	552.0456
131	483.6231
132	525.4693
133	539.4543
134	554.9366
135	624.5177
136	692.5204
137	694.3162
138	603.7803
139	581.1585
140	517.4103
141	590.7857
142	593.9762
143	610.1547
144	562.8741
145	498.9137
146	613.3958
147	537.5419
148	527.6864
149	565.4032
150	512.4049
151	622.2571
152	583.7558
153	607.2923
154	560.4186
155	556.6719
156	621.533
157	605.9499
158	636.3601
159	533.3401
160	517.5885
161	504.2043
162	614.2526
163	560.3243
164	537.1265
165	587.3737
166	573.2366
167	601.9881
168	576.7149
169	614.2829
170	556.8168
171	587.477
172	486.3162
173	550.0348
174	554.6321
175	694.1042
176	613.773
177	531.9166
178	519.8689
179	652.6183
180	591.2726
181	542.8612
182	492.8847
183	570.7023
184	576.5899
185	550.4772
186	492.6233
187	489.5726
188	463.8568
189	495.2755
190	539.9089
191	555.5231
192	526.4771
193	530.5163
194	561.452
195	479.6955
196	440.4054
197	451.9991
198	499.6957
199	448.1163
200	257.3894
