Position	Value
-200	183752.5314
-199	91262.8603
-198	91519.5174
-197	91853.714
-196	91740.1796
-195	92425.0076
-194	91962.4369
-193	92667.3543
-192	92728.4059
-191	91743.2993
-190	91658.9297
-189	92085.5449
-188	93624.0791
-187	92911.3776
-186	92876.6747
-185	91947.4332
-184	93483.968
-183	93029.8248
-182	91970.3534
-181	93911.7576
-180	93555.5803
-179	91500.6123
-178	92437.1154
-177	94371.4595
-176	92996.6999
-175	92723.1671
-174	94436.46
-173	93008.2463
-172	93924.9301
-171	94172.6221
-170	92410.7139
-169	96463.8359
-168	94741.1758
-167	94987.8264
-166	94318.6619
-165	95768.7824
-164	94475.1739
-163	94880.333
-162	95969.5328
-161	93402.3609
-160	94928.6428
-159	96231.7173
-158	94982.0334
-157	94551.9235
-156	98050.2257
-155	95522.0595
-154	95190.2385
-153	96360.856
-152	97419.2417
-151	96195.375
-150	97105.0833
-149	97354.3567
-148	95113.9573
-147	95926.0923
-146	94724.1055
-145	97060.2883
-144	96701.3579
-143	95615.5366
-142	96270.2869
-141	94744.199
-140	97820.0294
-139	97612.473
-138	97078.9958
-137	96488.8496
-136	97489.9574
-135	99029.2348
-134	96801.8471
-133	97160.8456
-132	99353.1056
-131	99365.3517
-130	100936.7603
-129	101047.7685
-128	99221.3534
-127	99731.2629
-126	101141.6126
-125	98852.6736
-124	99169.9909
-123	100037.1249
-122	98374.999
-121	97964.7698
-120	99906.6467
-119	97615.065
-118	97681.1975
-117	97777.672
-116	95999.5886
-115	98053.5701
-114	98192.816
-113	98518.8962
-112	97255.3177
-111	99366.3468
-110	98661.9271
-109	98922.6683
-108	99690.0889
-107	99606.0803
-106	99340.5761
-105	101588.5805
-104	99810.4658
-103	99212.1404
-102	103211.569
-101	101007.682
-100	102556.9939
-99	103402.4113
-98	104358.6469
-97	103650.825
-96	105356.0944
-95	105155.5731
-94	106154.675
-93	104974.2314
-92	104797.5039
-91	103781.5362
-90	103400.1088
-89	104432.5094
-88	103183.3562
-87	103564.9003
-86	102788.5172
-85	101512.2576
-84	102644.7765
-83	99258.3737
-82	99838.8934
-81	102208.6199
-80	99786.2632
-79	101578.4761
-78	101315.6371
-77	103606.6974
-76	102999.183
-75	104556.5454
-74	103771.4794
-73	105640.3817
-72	105825.2835
-71	105055.1689
-70	108392.7339
-69	110360.7609
-68	110588.3768
-67	111809.6224
-66	114116.9506
-65	114061.1881
-64	113128.996
-63	115166.8136
-62	114853.0739
-61	114432.7409
-60	112968.3724
-59	111098.8755
-58	113018.0292
-57	109554.8175
-56	107403.4467
-55	108813.9166
-54	107147.2387
-53	107787.2575
-52	108777.9209
-51	108236.6161
-50	106255.2059
-49	107067.7904
-48	109318.9552
-47	107566.3275
-46	105937.2796
-45	107975.1422
-44	106331.7081
-43	108034.3817
-42	111705.8875
-41	110444.726
-40	111000.827
-39	111724.5616
-38	113942.832
-37	116233.6151
-36	120310.5251
-35	120449.6339
-34	124436.5859
-33	125665.7337
-32	127072.2256
-31	128911.1275
-30	131210.4085
-29	125123.8461
-28	118954.764
-27	113284.4074
-26	112842.6621
-25	113058.7654
-24	115650.104
-23	116717.8747
-22	115622.639
-21	121392.9201
-20	122538.0817
-19	123054.245
-18	126741.8281
-17	127542.9003
-16	125180.6116
-15	129370.3179
-14	131524.1492
-13	136756.7257
-12	141414.3602
-11	147171.9573
-10	147451.6466
-9	157865.5829
-8	162495.5708
-7	169153.3403
-6	175737.3598
-5	188183.727
-4	203866.8003
-3	222752.4339
-2	191333.4403
-1	191242.2886
0	1018342.4063
1	191242.2886
2	191333.4403
3	222752.4339
4	203866.8003
5	188183.727
6	175737.3598
7	169153.3403
8	162495.5708
9	157865.5829
10	147451.6466
11	147171.9573
12	141414.3602
13	136756.7257
14	131524.1492
15	129370.3179
16	125180.6116
17	127542.9003
18	126741.8281
19	123054.245
20	122538.0817
21	121392.9201
22	115622.639
23	116717.8747
24	115650.104
25	113058.7654
26	112842.6621
27	113284.4074
28	118954.764
29	125123.8461
30	131210.4085
31	128911.1275
32	127072.2256
33	125665.7337
34	124436.5859
35	120449.6339
36	120310.5251
37	116233.6151
38	113942.832
39	111724.5616
40	111000.827
41	110444.726
42	111705.8875
43	108034.3817
44	106331.7081
45	107975.1422
46	105937.2796
47	107566.3275
48	109318.9552
49	107067.7904
50	106255.2059
51	108236.6161
52	108777.9209
53	107787.2575
54	107147.2387
55	108813.9166
56	107403.4467
57	109554.8175
58	113018.0292
59	111098.8755
60	112968.3724
61	114432.7409
62	114853.0739
63	115166.8136
64	113128.996
65	114061.1881
66	114116.9506
67	111809.6224
68	110588.3768
69	110360.7609
70	108392.7339
71	105055.1689
72	105825.2835
73	105640.3817
74	103771.4794
75	104556.5454
76	102999.183
77	103606.6974
78	101315.6371
79	101578.4761
80	99786.2632
81	102208.6199
82	99838.8934
83	99258.3737
84	102644.7765
85	101512.2576
86	102788.5172
87	103564.9003
88	103183.3562
89	104432.5094
90	103400.1088
91	103781.5362
92	104797.5039
93	104974.2314
94	106154.675
95	105155.5731
96	105356.0944
97	103650.825
98	104358.6469
99	103402.4113
100	102556.9939
101	101007.682
102	103211.569
103	99212.1404
104	99810.4658
105	101588.5805
106	99340.5761
107	99606.0803
108	99690.0889
109	98922.6683
110	98661.9271
111	99366.3468
112	97255.3177
113	98518.8962
114	98192.816
115	98053.5701
116	95999.5886
117	97777.672
118	97681.1975
119	97615.065
120	99906.6467
121	97964.7698
122	98374.999
123	100037.1249
124	99169.9909
125	98852.6736
126	101141.6126
127	99731.2629
128	99221.3534
129	101047.7685
130	100936.7603
131	99365.3517
132	99353.1056
133	97160.8456
134	96801.8471
135	99029.2348
136	97489.9574
137	96488.8496
138	97078.9958
139	97612.473
140	97820.0294
141	94744.199
142	96270.2869
143	95615.5366
144	96701.3579
145	97060.2883
146	94724.1055
147	95926.0923
148	95113.9573
149	97354.3567
150	97105.0833
151	96195.375
152	97419.2417
153	96360.856
154	95190.2385
155	95522.0595
156	98050.2257
157	94551.9235
158	94982.0334
159	96231.7173
160	94928.6428
161	93402.3609
162	95969.5328
163	94880.333
164	94475.1739
165	95768.7824
166	94318.6619
167	94987.8264
168	94741.1758
169	96463.8359
170	92410.7139
171	94172.6221
172	93924.9301
173	93008.2463
174	94436.46
175	92723.1671
176	92996.6999
177	94371.4595
178	92437.1154
179	91500.6123
180	93555.5803
181	93911.7576
182	91970.3534
183	93029.8248
184	93483.968
185	91947.4332
186	92876.6747
187	92911.3776
188	93624.0791
189	92085.5449
190	91658.9297
191	91743.2993
192	92728.4059
193	92667.3543
194	91962.4369
195	92425.0076
196	91740.1796
197	91853.714
198	91519.5174
199	91262.8603
200	183752.5314
