Position	Value
-200	299431.45
-199	149925.2643
-198	150962.2905
-197	149362.297
-196	149709.5768
-195	150983.6555
-194	152569.4823
-193	152573.4721
-192	151729.7047
-191	152082.0189
-190	151535.9931
-189	153197.4809
-188	154153.0813
-187	152718.3292
-186	151451.5339
-185	152406.4719
-184	154080.2148
-183	153161.1632
-182	152209.9498
-181	152407.8556
-180	152108.0626
-179	152004.5548
-178	151494.369
-177	153544.3112
-176	153575.9649
-175	152810.5496
-174	154144.0123
-173	153931.2547
-172	152985.2056
-171	154116.1671
-170	152800.22
-169	154444.8828
-168	153618.3458
-167	154432.4438
-166	153708.9735
-165	153762.5611
-164	154179.6023
-163	154669.994
-162	154731.8288
-161	152299.2416
-160	153635.9083
-159	154684.3835
-158	153177.8499
-157	152656.7841
-156	155355.2553
-155	152968.6127
-154	152313.1959
-153	153380.7264
-152	154685.6814
-151	153914.0901
-150	153373.1096
-149	153214.2921
-148	153402.4233
-147	155068.3794
-146	153571.1412
-145	154868.7815
-144	155813.0711
-143	154539.7346
-142	154343.93
-141	154653.3923
-140	155302.9292
-139	156672.3007
-138	157171.2159
-137	156463.2413
-136	158527.0577
-135	158793.1258
-134	156919.2369
-133	156521.6542
-132	159556.3911
-131	158575.6771
-130	161319.9259
-129	159830.8161
-128	159234.4708
-127	159699.3795
-126	159676.2905
-125	158797.9414
-124	157392.2053
-123	157365.1767
-122	156282.8235
-121	156493.5782
-120	159296.616
-119	157497.8314
-118	157016.3891
-117	159522.2497
-116	156802.6207
-115	158651.5189
-114	159704.8461
-113	158763.9317
-112	157476.9034
-111	159424.65
-110	159089.1206
-109	159577.4632
-108	162176.9256
-107	160585.0849
-106	160142.2874
-105	162121.5135
-104	160967.7987
-103	161310.8887
-102	162817.5711
-101	163185.2477
-100	163606.405
-99	165796.0876
-98	165640.7145
-97	164050.8711
-96	165509.009
-95	164874.1888
-94	164866.7878
-93	164725.8967
-92	163529.9493
-91	163715.8788
-90	163078.9552
-89	163518.6607
-88	163792.2847
-87	163314.0624
-86	162955.0477
-85	160810.4515
-84	162055.9767
-83	160000.6121
-82	161603.3522
-81	163138.281
-80	161427.5433
-79	163344.3459
-78	163920.0463
-77	163974.387
-76	164899.9131
-75	165739.3282
-74	164059.3671
-73	164141.0597
-72	166662.411
-71	167024.3017
-70	169175.0042
-69	171785.7744
-68	171709.3429
-67	172012.5026
-66	176580.1801
-65	176820.6228
-64	174855.3581
-63	175779.605
-62	176423.5555
-61	176138.8991
-60	174948.6759
-59	174998.7839
-58	174100.2437
-57	172643.1413
-56	170496.2131
-55	171120.2373
-54	169886.684
-53	170834.6996
-52	173418.0703
-51	172488.2413
-50	170696.3605
-49	172441.4947
-48	172542.5834
-47	170676.7366
-46	170336.3716
-45	171257.6522
-44	169391.3729
-43	171818.9959
-42	173795.6879
-41	171510.258
-40	173714.8981
-39	174490.0058
-38	175927.1814
-37	177426.9875
-36	181606.2519
-35	182353.0183
-34	184133.9547
-33	186713.5481
-32	190654.1885
-31	191725.9924
-30	193015.3821
-29	185143.7274
-28	177778.798
-27	171614.2737
-26	172424.0766
-25	173352.1386
-24	176262.055
-23	179602.0563
-22	185873.1796
-21	194984.8904
-20	198540.5051
-19	202937.898
-18	206670.6499
-17	211793.7511
-16	211537.2958
-15	217015.506
-14	220404.3998
-13	227548.1079
-12	236510.5497
-11	244330.299
-10	244661.5122
-9	255828.7362
-8	262139.8277
-7	273850.5226
-6	282907.3068
-5	304031.9971
-4	330394.9169
-3	369001.1047
-2	360766.4268
-1	392859.4459
0	1387696.8642
1	392859.4459
2	360766.4268
3	369001.1047
4	330394.9169
5	304031.9971
6	282907.3068
7	273850.5226
8	262139.8277
9	255828.7362
10	244661.5122
11	244330.299
12	236510.5497
13	227548.1079
14	220404.3998
15	217015.506
16	211537.2958
17	211793.7511
18	206670.6499
19	202937.898
20	198540.5051
21	194984.8904
22	185873.1796
23	179602.0563
24	176262.055
25	173352.1386
26	172424.0766
27	171614.2737
28	177778.798
29	185143.7274
30	193015.3821
31	191725.9924
32	190654.1885
33	186713.5481
34	184133.9547
35	182353.0183
36	181606.2519
37	177426.9875
38	175927.1814
39	174490.0058
40	173714.8981
41	171510.258
42	173795.6879
43	171818.9959
44	169391.3729
45	171257.6522
46	170336.3716
47	170676.7366
48	172542.5834
49	172441.4947
50	170696.3605
51	172488.2413
52	173418.0703
53	170834.6996
54	169886.684
55	171120.2373
56	170496.2131
57	172643.1413
58	174100.2437
59	174998.7839
60	174948.6759
61	176138.8991
62	176423.5555
63	175779.605
64	174855.3581
65	176820.6228
66	176580.1801
67	172012.5026
68	171709.3429
69	171785.7744
70	169175.0042
71	167024.3017
72	166662.411
73	164141.0597
74	164059.3671
75	165739.3282
76	164899.9131
77	163974.387
78	163920.0463
79	163344.3459
80	161427.5433
81	163138.281
82	161603.3522
83	160000.6121
84	162055.9767
85	160810.4515
86	162955.0477
87	163314.0624
88	163792.2847
89	163518.6607
90	163078.9552
91	163715.8788
92	163529.9493
93	164725.8967
94	164866.7878
95	164874.1888
96	165509.009
97	164050.8711
98	165640.7145
99	165796.0876
100	163606.405
101	163185.2477
102	162817.5711
103	161310.8887
104	160967.7987
105	162121.5135
106	160142.2874
107	160585.0849
108	162176.9256
109	159577.4632
110	159089.1206
111	159424.65
112	157476.9034
113	158763.9317
114	159704.8461
115	158651.5189
116	156802.6207
117	159522.2497
118	157016.3891
119	157497.8314
120	159296.616
121	156493.5782
122	156282.8235
123	157365.1767
124	157392.2053
125	158797.9414
126	159676.2905
127	159699.3795
128	159234.4708
129	159830.8161
130	161319.9259
131	158575.6771
132	159556.3911
133	156521.6542
134	156919.2369
135	158793.1258
136	158527.0577
137	156463.2413
138	157171.2159
139	156672.3007
140	155302.9292
141	154653.3923
142	154343.93
143	154539.7346
144	155813.0711
145	154868.7815
146	153571.1412
147	155068.3794
148	153402.4233
149	153214.2921
150	153373.1096
151	153914.0901
152	154685.6814
153	153380.7264
154	152313.1959
155	152968.6127
156	155355.2553
157	152656.7841
158	153177.8499
159	154684.3835
160	153635.9083
161	152299.2416
162	154731.8288
163	154669.994
164	154179.6023
165	153762.5611
166	153708.9735
167	154432.4438
168	153618.3458
169	154444.8828
170	152800.22
171	154116.1671
172	152985.2056
173	153931.2547
174	154144.0123
175	152810.5496
176	153575.9649
177	153544.3112
178	151494.369
179	152004.5548
180	152108.0626
181	152407.8556
182	152209.9498
183	153161.1632
184	154080.2148
185	152406.4719
186	151451.5339
187	152718.3292
188	154153.0813
189	153197.4809
190	151535.9931
191	152082.0189
192	151729.7047
193	152573.4721
194	152569.4823
195	150983.6555
196	149709.5768
197	149362.297
198	150962.2905
199	149925.2643
200	299431.45
