Position	Value
-200	3610.1231
-199	3492.8952
-198	3548.0841
-197	3730.1328
-196	3721.6168
-195	3694.3866
-194	3802.744
-193	3660.7772
-192	3707.6095
-191	3833.9483
-190	3746.9405
-189	3898.7033
-188	3708.7677
-187	3748.2699
-186	3870.1884
-185	3733.2613
-184	3746.1655
-183	3805.5925
-182	3477.2254
-181	3643.0456
-180	3886.6447
-179	3813.1212
-178	3606.5929
-177	3776.1102
-176	3865.4176
-175	3678.8509
-174	3917.3116
-173	3913.1276
-172	3900.3378
-171	3623.7457
-170	3838.4323
-169	3834.5524
-168	3777.5268
-167	3929.2291
-166	3785.1048
-165	3960.9952
-164	3735.9379
-163	3624.2894
-162	3807.6741
-161	3727.767
-160	3751.0621
-159	3821.2361
-158	3928.8373
-157	3699.6893
-156	4017.6599
-155	3734.6879
-154	3856.3407
-153	4095.7174
-152	3854.1757
-151	3648.5012
-150	3901.1921
-149	3833.5643
-148	3783.5083
-147	3716.7398
-146	3632.6201
-145	3821.6078
-144	3895.7094
-143	3678.1675
-142	3866.9629
-141	3881.0835
-140	3910.1397
-139	3779.8679
-138	3709.0887
-137	3866.2889
-136	3991.1625
-135	4057.8793
-134	3857.0683
-133	4087.8481
-132	4029.6374
-131	4132.5155
-130	4203.9448
-129	4297.5937
-128	4178.4152
-127	4156.6804
-126	4357.4226
-125	4041.1995
-124	4282.6803
-123	4030.7591
-122	4172.5018
-121	3932.2579
-120	4235.8615
-119	4279.499
-118	3986.3879
-117	3793.0002
-116	3834.457
-115	3775.3715
-114	3910.3483
-113	4063.5243
-112	3654.4307
-111	4195.6773
-110	4035.4537
-109	3846.626
-108	4155.4097
-107	4146.0516
-106	4125.5216
-105	4255.5361
-104	4043.7918
-103	4184.9548
-102	4215.5738
-101	4524.2797
-100	4362.0291
-99	4554.1626
-98	4393.5608
-97	4340.1777
-96	4318.0328
-95	4500.1114
-94	4223.7134
-93	4499.3011
-92	4657.1708
-91	4358.9358
-90	4423.5498
-89	4316.7839
-88	4380.6708
-87	4417.4562
-86	4522.4065
-85	4361.408
-84	4427.2661
-83	4389.5549
-82	4192.65
-81	4300.4632
-80	4172.0616
-79	4278.8831
-78	4301.9649
-77	4335.9379
-76	4246.94
-75	4448.8761
-74	4223.9737
-73	4252.3491
-72	4479.9647
-71	4490.4911
-70	4446.7222
-69	4695.0878
-68	4849.5151
-67	4697.5171
-66	5128.1017
-65	4959.6412
-64	5084.8813
-63	4765.3925
-62	4949.9456
-61	4944.8902
-60	4770.6481
-59	4673.1435
-58	4950.8534
-57	4589.0206
-56	4788.8212
-55	4672.8525
-54	4549.8351
-53	4641.8928
-52	4782.7621
-51	4783.955
-50	4537.932
-49	4861.8337
-48	4672.157
-47	4701.1551
-46	4640.1723
-45	4342.3089
-44	4222.3491
-43	4606.9694
-42	4947.069
-41	4409.4957
-40	4642.4173
-39	4834.2223
-38	5039.8618
-37	4871.1905
-36	5382.7059
-35	5451.6865
-34	5283.6878
-33	5569.9597
-32	5977.8572
-31	5827.4748
-30	5918.0293
-29	5768.6034
-28	5506.6502
-27	5313.6417
-26	5106.0296
-25	4554.0791
-24	4798.6481
-23	4545.473
-22	4781.5127
-21	4840.3571
-20	4717.8395
-19	4939.5567
-18	5069.1428
-17	4891.6228
-16	5488.4251
-15	5441.9493
-14	5337.587
-13	5507.8929
-12	6294.9132
-11	5943.4535
-10	6306.9001
-9	6907.0518
-8	7085.8363
-7	7171.4823
-6	7704.7223
-5	8472.3775
-4	10131.7021
-3	10466.4096
-2	10011.0938
-1	11891.2047
0	130955.2402
1	11891.2047
2	10011.0938
3	10466.4096
4	10131.7021
5	8472.3775
6	7704.7223
7	7171.4823
8	7085.8363
9	6907.0518
10	6306.9001
11	5943.4535
12	6294.9132
13	5507.8929
14	5337.587
15	5441.9493
16	5488.4251
17	4891.6228
18	5069.1428
19	4939.5567
20	4717.8395
21	4840.3571
22	4781.5127
23	4545.473
24	4798.6481
25	4554.0791
26	5106.0296
27	5313.6417
28	5506.6502
29	5768.6034
30	5918.0293
31	5827.4748
32	5977.8572
33	5569.9597
34	5283.6878
35	5451.6865
36	5382.7059
37	4871.1905
38	5039.8618
39	4834.2223
40	4642.4173
41	4409.4957
42	4947.069
43	4606.9694
44	4222.3491
45	4342.3089
46	4640.1723
47	4701.1551
48	4672.157
49	4861.8337
50	4537.932
51	4783.955
52	4782.7621
53	4641.8928
54	4549.8351
55	4672.8525
56	4788.8212
57	4589.0206
58	4950.8534
59	4673.1435
60	4770.6481
61	4944.8902
62	4949.9456
63	4765.3925
64	5084.8813
65	4959.6412
66	5128.1017
67	4697.5171
68	4849.5151
69	4695.0878
70	4446.7222
71	4490.4911
72	4479.9647
73	4252.3491
74	4223.9737
75	4448.8761
76	4246.94
77	4335.9379
78	4301.9649
79	4278.8831
80	4172.0616
81	4300.4632
82	4192.65
83	4389.5549
84	4427.2661
85	4361.408
86	4522.4065
87	4417.4562
88	4380.6708
89	4316.7839
90	4423.5498
91	4358.9358
92	4657.1708
93	4499.3011
94	4223.7134
95	4500.1114
96	4318.0328
97	4340.1777
98	4393.5608
99	4554.1626
100	4362.0291
101	4524.2797
102	4215.5738
103	4184.9548
104	4043.7918
105	4255.5361
106	4125.5216
107	4146.0516
108	4155.4097
109	3846.626
110	4035.4537
111	4195.6773
112	3654.4307
113	4063.5243
114	3910.3483
115	3775.3715
116	3834.457
117	3793.0002
118	3986.3879
119	4279.499
120	4235.8615
121	3932.2579
122	4172.5018
123	4030.7591
124	4282.6803
125	4041.1995
126	4357.4226
127	4156.6804
128	4178.4152
129	4297.5937
130	4203.9448
131	4132.5155
132	4029.6374
133	4087.8481
134	3857.0683
135	4057.8793
136	3991.1625
137	3866.2889
138	3709.0887
139	3779.8679
140	3910.1397
141	3881.0835
142	3866.9629
143	3678.1675
144	3895.7094
145	3821.6078
146	3632.6201
147	3716.7398
148	3783.5083
149	3833.5643
150	3901.1921
151	3648.5012
152	3854.1757
153	4095.7174
154	3856.3407
155	3734.6879
156	4017.6599
157	3699.6893
158	3928.8373
159	3821.2361
160	3751.0621
161	3727.767
162	3807.6741
163	3624.2894
164	3735.9379
165	3960.9952
166	3785.1048
167	3929.2291
168	3777.5268
169	3834.5524
170	3838.4323
171	3623.7457
172	3900.3378
173	3913.1276
174	3917.3116
175	3678.8509
176	3865.4176
177	3776.1102
178	3606.5929
179	3813.1212
180	3886.6447
181	3643.0456
182	3477.2254
183	3805.5925
184	3746.1655
185	3733.2613
186	3870.1884
187	3748.2699
188	3708.7677
189	3898.7033
190	3746.9405
191	3833.9483
192	3707.6095
193	3660.7772
194	3802.744
195	3694.3866
196	3721.6168
197	3730.1328
198	3548.0841
199	3492.8952
200	3610.1231
