Position	Value
-200	0.0
-199	0.0
-198	0.0
-197	0.0026
-196	0.0
-195	0.0
-194	0.1
-193	0.0
-192	0.0
-191	0.1096
-190	0.0
-189	0.0
-188	0.0
-187	0.0048
-186	0.1585
-185	0.7067
-184	0.1621
-183	0.1222
-182	0.0167
-181	0.05
-180	0.037
-179	0.0059
-178	0.2188
-177	0.0
-176	0.0
-175	0.0026
-174	0.0
-173	0.1429
-172	0.0
-171	0.0
-170	0.0
-169	0.0
-168	0.0
-167	0.0
-166	0.0
-165	0.0
-164	0.0
-163	0.0008
-162	0.0
-161	0.0
-160	0.0
-159	0.0
-158	0.0542
-157	0.0
-156	0.0256
-155	0.5381
-154	0.028
-153	0.1756
-152	0.0042
-151	0.0648
-150	0.5671
-149	0.1224
-148	0.0784
-147	0.0095
-146	0.1315
-145	0.1208
-144	0.0042
-143	0.0327
-142	0.0042
-141	0.0
-140	0.0
-139	0.0096
-138	0.0
-137	0.0
-136	0.0
-135	0.0
-134	0.0
-133	0.0026
-132	0.0
-131	0.211
-130	0.0154
-129	0.0
-128	0.1252
-127	1.0154
-126	0.116
-125	0.0067
-124	0.0
-123	0.0125
-122	0.0067
-121	0.0375
-120	0.1429
-119	0.2037
-118	0.0189
-117	0.0333
-116	0.0
-115	0.0
-114	0.0059
-113	0.1429
-112	0.0
-111	0.2
-110	0.1224
-109	0.0
-108	0.0
-107	0.0042
-106	0.0
-105	0.0
-104	0.0
-103	0.0
-102	0.0
-101	0.0
-100	0.0
-99	0.3393
-98	0.0
-97	0.0
-96	0.0
-95	0.0
-94	0.0
-93	0.0
-92	0.1
-91	0.0005
-90	0.0
-89	0.0
-88	0.1111
-87	0.1071
-86	0.0
-85	0.0
-84	0.0
-83	0.0
-82	0.0
-81	0.1
-80	0.0
-79	0.0
-78	0.0
-77	0.0
-76	0.0
-75	0.0
-74	0.0
-73	0.0
-72	0.0
-71	0.0
-70	0.0026
-69	0.0
-68	1.0026
-67	0.0333
-66	1.0
-65	0.0293
-64	0.0033
-63	0.3
-62	0.0
-61	0.0026
-60	0.3038
-59	0.0051
-58	0.0837
-57	0.0
-56	0.0
-55	0.0
-54	0.2
-53	0.0
-52	0.0
-51	0.0
-50	0.25
-49	0.0
-48	0.0
-47	0.0875
-46	0.0
-45	0.2361
-44	0.0
-43	0.1111
-42	3.0
-41	0.0
-40	0.0
-39	0.102
-38	0.0682
-37	0.0
-36	1.1429
-35	0.0
-34	1.0
-33	0.0
-32	0.0
-31	0.0
-30	0.0
-29	0.0
-28	0.0
-27	0.0
-26	0.0
-25	0.0
-24	0.0
-23	0.0
-22	0.0
-21	0.0
-20	0.0
-19	0.0
-18	0.0
-17	0.0
-16	0.0
-15	0.0
-14	0.0
-13	0.0
-12	0.0
-11	0.0
-10	0.0
-9	0.0
-8	0.0769
-7	0.0
-6	0.0
-5	9.2236
-4	4.15
-3	1.6762
-2	1.0
-1	1.1762
0	474.2837
1	1.1762
2	1.0
3	1.6762
4	4.15
5	9.2236
6	0.0
7	0.0
8	0.0769
9	0.0
10	0.0
11	0.0
12	0.0
13	0.0
14	0.0
15	0.0
16	0.0
17	0.0
18	0.0
19	0.0
20	0.0
21	0.0
22	0.0
23	0.0
24	0.0
25	0.0
26	0.0
27	0.0
28	0.0
29	0.0
30	0.0
31	0.0
32	0.0
33	0.0
34	1.0
35	0.0
36	1.1429
37	0.0
38	0.0682
39	0.102
40	0.0
41	0.0
42	3.0
43	0.1111
44	0.0
45	0.2361
46	0.0
47	0.0875
48	0.0
49	0.0
50	0.25
51	0.0
52	0.0
53	0.0
54	0.2
55	0.0
56	0.0
57	0.0
58	0.0837
59	0.0051
60	0.3038
61	0.0026
62	0.0
63	0.3
64	0.0033
65	0.0293
66	1.0
67	0.0333
68	1.0026
69	0.0
70	0.0026
71	0.0
72	0.0
73	0.0
74	0.0
75	0.0
76	0.0
77	0.0
78	0.0
79	0.0
80	0.0
81	0.1
82	0.0
83	0.0
84	0.0
85	0.0
86	0.0
87	0.1071
88	0.1111
89	0.0
90	0.0
91	0.0005
92	0.1
93	0.0
94	0.0
95	0.0
96	0.0
97	0.0
98	0.0
99	0.3393
100	0.0
101	0.0
102	0.0
103	0.0
104	0.0
105	0.0
106	0.0
107	0.0042
108	0.0
109	0.0
110	0.1224
111	0.2
112	0.0
113	0.1429
114	0.0059
115	0.0
116	0.0
117	0.0333
118	0.0189
119	0.2037
120	0.1429
121	0.0375
122	0.0067
123	0.0125
124	0.0
125	0.0067
126	0.116
127	1.0154
128	0.1252
129	0.0
130	0.0154
131	0.211
132	0.0
133	0.0026
134	0.0
135	0.0
136	0.0
137	0.0
138	0.0
139	0.0096
140	0.0
141	0.0
142	0.0042
143	0.0327
144	0.0042
145	0.1208
146	0.1315
147	0.0095
148	0.0784
149	0.1224
150	0.5671
151	0.0648
152	0.0042
153	0.1756
154	0.028
155	0.5381
156	0.0256
157	0.0
158	0.0542
159	0.0
160	0.0
161	0.0
162	0.0
163	0.0008
164	0.0
165	0.0
166	0.0
167	0.0
168	0.0
169	0.0
170	0.0
171	0.0
172	0.0
173	0.1429
174	0.0
175	0.0026
176	0.0
177	0.0
178	0.2188
179	0.0059
180	0.037
181	0.05
182	0.0167
183	0.1222
184	0.1621
185	0.7067
186	0.1585
187	0.0048
188	0.0
189	0.0
190	0.0
191	0.1096
192	0.0
193	0.0
194	0.1
195	0.0
196	0.0
197	0.0026
198	0.0
199	0.0
200	0.0
