Position	Value
-200	174.3348
-199	97.1601
-198	97.8576
-197	107.7657
-196	87.2921
-195	89.7428
-194	116.4913
-193	87.2305
-192	89.0136
-191	123.1729
-190	100.5612
-189	108.3248
-188	104.8088
-187	128.5092
-186	95.1891
-185	99.7106
-184	99.8219
-183	118.166
-182	94.9234
-181	134.3954
-180	102.0392
-179	100.473
-178	123.3078
-177	99.5972
-176	131.9493
-175	103.5665
-174	118.4425
-173	91.3833
-172	118.4709
-171	125.5799
-170	116.1526
-169	122.7356
-168	112.5162
-167	157.7673
-166	119.3655
-165	99.5682
-164	105.0862
-163	149.1657
-162	115.2303
-161	117.3757
-160	147.8503
-159	130.9127
-158	126.1522
-157	119.5292
-156	159.3409
-155	120.4721
-154	133.5424
-153	178.8221
-152	161.2963
-151	152.4371
-150	118.4937
-149	151.9999
-148	139.1516
-147	123.7036
-146	108.9713
-145	163.1243
-144	173.7331
-143	126.6419
-142	119.3497
-141	146.8092
-140	114.9763
-139	135.7633
-138	184.2209
-137	162.775
-136	123.0411
-135	147.6377
-134	122.5889
-133	135.8136
-132	158.3133
-131	134.771
-130	129.6164
-129	131.9792
-128	170.1744
-127	166.7098
-126	110.6886
-125	151.6114
-124	177.7778
-123	189.9815
-122	166.4697
-121	143.8999
-120	156.5291
-119	179.4222
-118	162.5201
-117	147.5393
-116	128.9706
-115	139.362
-114	161.5865
-113	165.4605
-112	153.1787
-111	122.4001
-110	182.6547
-109	176.8005
-108	159.8551
-107	170.133
-106	135.0234
-105	155.9223
-104	149.9258
-103	170.5067
-102	169.5057
-101	158.2107
-100	163.9762
-99	184.0886
-98	185.3332
-97	189.0451
-96	190.8264
-95	182.5656
-94	226.3644
-93	196.2339
-92	192.0706
-91	216.6426
-90	192.1452
-89	134.4005
-88	184.996
-87	167.3915
-86	212.565
-85	158.9321
-84	156.5845
-83	158.0355
-82	157.2481
-81	151.7694
-80	162.3967
-79	158.5683
-78	166.7243
-77	143.6701
-76	187.8981
-75	203.3281
-74	178.9911
-73	196.1354
-72	210.1811
-71	217.6566
-70	239.4565
-69	230.6107
-68	217.0575
-67	279.6016
-66	276.968
-65	293.2672
-64	265.4801
-63	274.3893
-62	294.4697
-61	246.5782
-60	220.3247
-59	257.4211
-58	277.2704
-57	197.5259
-56	222.5879
-55	256.8971
-54	187.0578
-53	224.3274
-52	214.4923
-51	224.8392
-50	146.992
-49	178.7605
-48	208.1396
-47	191.793
-46	172.417
-45	172.2776
-44	135.5212
-43	174.6175
-42	211.2789
-41	165.8531
-40	164.354
-39	216.3209
-38	288.4875
-37	258.5171
-36	276.0314
-35	292.6593
-34	386.1697
-33	313.3485
-32	379.8082
-31	396.9012
-30	468.8294
-29	359.3095
-28	363.2248
-27	260.3674
-26	222.2307
-25	196.0133
-24	218.1919
-23	184.9688
-22	234.9981
-21	242.9258
-20	207.0082
-19	235.653
-18	269.7263
-17	252.4518
-16	191.3432
-15	258.1029
-14	204.109
-13	230.3998
-12	267.7044
-11	265.8177
-10	293.2399
-9	323.8374
-8	422.5363
-7	402.4926
-6	358.7999
-5	503.0172
-4	624.9793
-3	740.9161
-2	742.1154
-1	604.5007
0	11530.8894
1	604.5007
2	742.1154
3	740.9161
4	624.9793
5	503.0172
6	358.7999
7	402.4926
8	422.5363
9	323.8374
10	293.2399
11	265.8177
12	267.7044
13	230.3998
14	204.109
15	258.1029
16	191.3432
17	252.4518
18	269.7263
19	235.653
20	207.0082
21	242.9258
22	234.9981
23	184.9688
24	218.1919
25	196.0133
26	222.2307
27	260.3674
28	363.2248
29	359.3095
30	468.8294
31	396.9012
32	379.8082
33	313.3485
34	386.1697
35	292.6593
36	276.0314
37	258.5171
38	288.4875
39	216.3209
40	164.354
41	165.8531
42	211.2789
43	174.6175
44	135.5212
45	172.2776
46	172.417
47	191.793
48	208.1396
49	178.7605
50	146.992
51	224.8392
52	214.4923
53	224.3274
54	187.0578
55	256.8971
56	222.5879
57	197.5259
58	277.2704
59	257.4211
60	220.3247
61	246.5782
62	294.4697
63	274.3893
64	265.4801
65	293.2672
66	276.968
67	279.6016
68	217.0575
69	230.6107
70	239.4565
71	217.6566
72	210.1811
73	196.1354
74	178.9911
75	203.3281
76	187.8981
77	143.6701
78	166.7243
79	158.5683
80	162.3967
81	151.7694
82	157.2481
83	158.0355
84	156.5845
85	158.9321
86	212.565
87	167.3915
88	184.996
89	134.4005
90	192.1452
91	216.6426
92	192.0706
93	196.2339
94	226.3644
95	182.5656
96	190.8264
97	189.0451
98	185.3332
99	184.0886
100	163.9762
101	158.2107
102	169.5057
103	170.5067
104	149.9258
105	155.9223
106	135.0234
107	170.133
108	159.8551
109	176.8005
110	182.6547
111	122.4001
112	153.1787
113	165.4605
114	161.5865
115	139.362
116	128.9706
117	147.5393
118	162.5201
119	179.4222
120	156.5291
121	143.8999
122	166.4697
123	189.9815
124	177.7778
125	151.6114
126	110.6886
127	166.7098
128	170.1744
129	131.9792
130	129.6164
131	134.771
132	158.3133
133	135.8136
134	122.5889
135	147.6377
136	123.0411
137	162.775
138	184.2209
139	135.7633
140	114.9763
141	146.8092
142	119.3497
143	126.6419
144	173.7331
145	163.1243
146	108.9713
147	123.7036
148	139.1516
149	151.9999
150	118.4937
151	152.4371
152	161.2963
153	178.8221
154	133.5424
155	120.4721
156	159.3409
157	119.5292
158	126.1522
159	130.9127
160	147.8503
161	117.3757
162	115.2303
163	149.1657
164	105.0862
165	99.5682
166	119.3655
167	157.7673
168	112.5162
169	122.7356
170	116.1526
171	125.5799
172	118.4709
173	91.3833
174	118.4425
175	103.5665
176	131.9493
177	99.5972
178	123.3078
179	100.473
180	102.0392
181	134.3954
182	94.9234
183	118.166
184	99.8219
185	99.7106
186	95.1891
187	128.5092
188	104.8088
189	108.3248
190	100.5612
191	123.1729
192	89.0136
193	87.2305
194	116.4913
195	89.7428
196	87.2921
197	107.7657
198	97.8576
199	97.1601
200	174.3348
