Position	Value
-200	1113.4892
-199	2123.6991
-198	2168.9096
-197	2260.5663
-196	2127.1917
-195	2230.7204
-194	2153.8599
-193	2203.8387
-192	2140.8468
-191	2166.5462
-190	2204.1634
-189	2138.8648
-188	2296.7127
-187	2287.7095
-186	2189.8224
-185	2162.849
-184	2082.6722
-183	2126.8446
-182	2075.2881
-181	2055.7125
-180	2265.8637
-179	2138.3844
-178	1992.9762
-177	2145.782
-176	2103.8501
-175	1947.1413
-174	1985.4167
-173	1897.4899
-172	1966.0538
-171	2069.8367
-170	2087.236
-169	2221.4242
-168	2083.9194
-167	2234.8989
-166	2317.5922
-165	2270.1228
-164	2291.7684
-163	2302.188
-162	2179.802
-161	2102.557
-160	2304.5054
-159	2086.4125
-158	2126.6379
-157	2318.9381
-156	2299.8836
-155	2348.0912
-154	2417.2714
-153	2312.5721
-152	2270.2904
-151	2401.9123
-150	2298.9004
-149	2318.8662
-148	2289.4798
-147	2125.1687
-146	2242.1936
-145	2285.1884
-144	2257.0316
-143	2192.4423
-142	2194.1221
-141	2322.6333
-140	2290.5347
-139	2375.6071
-138	2148.9296
-137	2376.3552
-136	2404.3837
-135	2245.1348
-134	2299.5373
-133	2400.8452
-132	2430.991
-131	2421.2416
-130	2197.6033
-129	2272.8011
-128	2217.4941
-127	2329.2087
-126	2507.3543
-125	2242.777
-124	2477.4175
-123	2505.0106
-122	2391.8532
-121	2455.1684
-120	2341.102
-119	2347.1836
-118	2377.2454
-117	2176.6706
-116	2232.6744
-115	2174.9329
-114	2207.0203
-113	2131.8322
-112	2278.1657
-111	2414.5156
-110	2328.5651
-109	2459.4459
-108	2294.8554
-107	2596.9553
-106	2398.6933
-105	2232.0648
-104	2448.4954
-103	2420.271
-102	2662.2132
-101	2583.9648
-100	2567.4689
-99	2612.9395
-98	2548.0921
-97	2512.5363
-96	2293.7744
-95	2555.139
-94	2512.9978
-93	2574.3212
-92	2671.4533
-91	2506.4821
-90	2397.1262
-89	2506.4836
-88	2453.4746
-87	2477.9558
-86	2321.421
-85	2188.9899
-84	2313.2019
-83	2297.2605
-82	2110.9642
-81	2241.2162
-80	2257.6982
-79	2352.907
-78	2222.1687
-77	2342.8568
-76	2321.8809
-75	2511.9595
-74	2416.1724
-73	2444.5144
-72	2626.3576
-71	2443.6002
-70	2542.5603
-69	2766.7398
-68	2688.8436
-67	2700.2821
-66	2812.3706
-65	3074.5748
-64	2975.7251
-63	3275.6849
-62	3104.9271
-61	2991.5496
-60	3164.0342
-59	2952.8665
-58	3074.1811
-57	2789.7741
-56	2697.1149
-55	2655.7895
-54	2508.0202
-53	2405.5558
-52	2274.3298
-51	2315.8158
-50	2297.1315
-49	2251.6665
-48	2286.7943
-47	2416.6375
-46	2324.2435
-45	2303.247
-44	2592.6594
-43	2385.609
-42	2561.2084
-41	2624.8404
-40	2691.8503
-39	2844.8465
-38	2909.6513
-37	2862.1396
-36	3011.4193
-35	3246.5162
-34	3266.1285
-33	3407.9092
-32	3529.1072
-31	3394.8602
-30	3702.8387
-29	3592.5846
-28	3698.2255
-27	3347.6167
-26	2840.7731
-25	2909.4655
-24	2919.863
-23	2873.4973
-22	3033.9812
-21	2913.9685
-20	3053.7199
-19	3177.6265
-18	3192.8988
-17	3226.8229
-16	3494.7302
-15	3711.1636
-14	3760.5862
-13	3989.9669
-12	4706.7301
-11	4959.2215
-10	5569.8796
-9	6312.1808
-8	6792.6517
-7	7812.5816
-6	8941.1329
-5	10781.8246
-4	11859.9286
-3	13964.8889
-2	15274.531
-1	16545.7838
0	171052.8687
1	16545.7838
2	15274.531
3	13964.8889
4	11859.9286
5	10781.8246
6	8941.1329
7	7812.5816
8	6792.6517
9	6312.1808
10	5569.8796
11	4959.2215
12	4706.7301
13	3989.9669
14	3760.5862
15	3711.1636
16	3494.7302
17	3226.8229
18	3192.8988
19	3177.6265
20	3053.7199
21	2913.9685
22	3033.9812
23	2873.4973
24	2919.863
25	2909.4655
26	2840.7731
27	3347.6167
28	3698.2255
29	3592.5846
30	3702.8387
31	3394.8602
32	3529.1072
33	3407.9092
34	3266.1285
35	3246.5162
36	3011.4193
37	2862.1396
38	2909.6513
39	2844.8465
40	2691.8503
41	2624.8404
42	2561.2084
43	2385.609
44	2592.6594
45	2303.247
46	2324.2435
47	2416.6375
48	2286.7943
49	2251.6665
50	2297.1315
51	2315.8158
52	2274.3298
53	2405.5558
54	2508.0202
55	2655.7895
56	2697.1149
57	2789.7741
58	3074.1811
59	2952.8665
60	3164.0342
61	2991.5496
62	3104.9271
63	3275.6849
64	2975.7251
65	3074.5748
66	2812.3706
67	2700.2821
68	2688.8436
69	2766.7398
70	2542.5603
71	2443.6002
72	2626.3576
73	2444.5144
74	2416.1724
75	2511.9595
76	2321.8809
77	2342.8568
78	2222.1687
79	2352.907
80	2257.6982
81	2241.2162
82	2110.9642
83	2297.2605
84	2313.2019
85	2188.9899
86	2321.421
87	2477.9558
88	2453.4746
89	2506.4836
90	2397.1262
91	2506.4821
92	2671.4533
93	2574.3212
94	2512.9978
95	2555.139
96	2293.7744
97	2512.5363
98	2548.0921
99	2612.9395
100	2567.4689
101	2583.9648
102	2662.2132
103	2420.271
104	2448.4954
105	2232.0648
106	2398.6933
107	2596.9553
108	2294.8554
109	2459.4459
110	2328.5651
111	2414.5156
112	2278.1657
113	2131.8322
114	2207.0203
115	2174.9329
116	2232.6744
117	2176.6706
118	2377.2454
119	2347.1836
120	2341.102
121	2455.1684
122	2391.8532
123	2505.0106
124	2477.4175
125	2242.777
126	2507.3543
127	2329.2087
128	2217.4941
129	2272.8011
130	2197.6033
131	2421.2416
132	2430.991
133	2400.8452
134	2299.5373
135	2245.1348
136	2404.3837
137	2376.3552
138	2148.9296
139	2375.6071
140	2290.5347
141	2322.6333
142	2194.1221
143	2192.4423
144	2257.0316
145	2285.1884
146	2242.1936
147	2125.1687
148	2289.4798
149	2318.8662
150	2298.9004
151	2401.9123
152	2270.2904
153	2312.5721
154	2417.2714
155	2348.0912
156	2299.8836
157	2318.9381
158	2126.6379
159	2086.4125
160	2304.5054
161	2102.557
162	2179.802
163	2302.188
164	2291.7684
165	2270.1228
166	2317.5922
167	2234.8989
168	2083.9194
169	2221.4242
170	2087.236
171	2069.8367
172	1966.0538
173	1897.4899
174	1985.4167
175	1947.1413
176	2103.8501
177	2145.782
178	1992.9762
179	2138.3844
180	2265.8637
181	2055.7125
182	2075.2881
183	2126.8446
184	2082.6722
185	2162.849
186	2189.8224
187	2287.7095
188	2296.7127
189	2138.8648
190	2204.1634
191	2166.5462
192	2140.8468
193	2203.8387
194	2153.8599
195	2230.7204
196	2127.1917
197	2260.5663
198	2168.9096
199	2123.6991
200	1113.4892
