Position	Value
-200	0.0
-199	0.0
-198	0.0
-197	0.0
-196	0.0
-195	0.0
-194	0.0769
-193	0.0
-192	0.0
-191	0.0
-190	0.0
-189	0.0
-188	0.0013
-187	0.0
-186	0.0
-185	0.0
-184	0.0
-183	0.0
-182	0.0
-181	0.0
-180	0.0
-179	0.0059
-178	0.0257
-177	0.0
-176	0.0
-175	0.0769
-174	0.0
-173	0.0
-172	0.0
-171	0.0
-170	0.0
-169	0.0
-168	0.0
-167	0.0
-166	0.0
-165	0.1111
-164	0.0
-163	0.0
-162	0.0
-161	0.0
-160	0.0
-159	0.0
-158	0.0
-157	0.0
-156	0.0769
-155	0.0
-154	0.0069
-153	0.0241
-152	0.0286
-151	0.0388
-150	0.1227
-149	0.0
-148	0.0469
-147	0.0498
-146	0.0
-145	0.0
-144	0.0
-143	0.1876
-142	0.2604
-141	0.0
-140	0.0
-139	0.0
-138	0.0
-137	0.1875
-136	0.0938
-135	0.1004
-134	0.0909
-133	0.1111
-132	0.1667
-131	0.2026
-130	0.0
-129	0.0
-128	0.0059
-127	0.0
-126	0.0004
-125	0.0
-124	0.0
-123	0.0
-122	0.0769
-121	0.0
-120	0.0
-119	0.0
-118	0.0
-117	0.0739
-116	0.0
-115	0.0
-114	0.0059
-113	0.0003
-112	0.125
-111	0.0
-110	0.0769
-109	0.0
-108	0.0
-107	0.0
-106	0.125
-105	0.0
-104	0.0
-103	0.0
-102	0.0
-101	0.0
-100	0.0003
-99	0.0
-98	0.0
-97	0.125
-96	0.0007
-95	0.0774
-94	0.0
-93	0.006
-92	0.0238
-91	0.0
-90	0.0148
-89	0.0833
-88	0.0
-87	0.0025
-86	0.0002
-85	0.0
-84	0.0
-83	0.5719
-82	0.1111
-81	0.0003
-80	0.0
-79	0.0
-78	0.0
-77	0.0
-76	0.0
-75	0.0
-74	0.0
-73	0.0
-72	0.0
-71	0.0769
-70	0.0
-69	0.0
-68	0.0
-67	0.0
-66	0.0
-65	0.0059
-64	0.0
-63	0.0059
-62	1.0
-61	0.0
-60	0.0256
-59	4.0188
-58	1.131
-57	0.0
-56	0.0
-55	0.0
-54	0.0
-53	0.0
-52	0.1
-51	0.0007
-50	0.1111
-49	0.0
-48	0.0014
-47	0.0
-46	0.0
-45	0.0
-44	0.0
-43	0.0
-42	0.0
-41	0.0
-40	0.0
-39	0.0
-38	0.0
-37	0.0
-36	0.0
-35	0.0
-34	0.0
-33	0.0
-32	0.0
-31	0.125
-30	0.25
-29	0.0
-28	0.0
-27	0.0
-26	0.0
-25	0.3333
-24	0.0
-23	0.0
-22	0.0
-21	0.0
-20	0.0
-19	0.0
-18	0.0
-17	0.0003
-16	0.0
-15	0.0
-14	0.0
-13	0.0833
-12	0.0
-11	0.0833
-10	0.0
-9	0.0
-8	0.0
-7	0.1111
-6	1.3611
-5	1.0
-4	2.0769
-3	3.1
-2	2.1
-1	1.2291
0	426.4542
1	1.2291
2	2.1
3	3.1
4	2.0769
5	1.0
6	1.3611
7	0.1111
8	0.0
9	0.0
10	0.0
11	0.0833
12	0.0
13	0.0833
14	0.0
15	0.0
16	0.0
17	0.0003
18	0.0
19	0.0
20	0.0
21	0.0
22	0.0
23	0.0
24	0.0
25	0.3333
26	0.0
27	0.0
28	0.0
29	0.0
30	0.25
31	0.125
32	0.0
33	0.0
34	0.0
35	0.0
36	0.0
37	0.0
38	0.0
39	0.0
40	0.0
41	0.0
42	0.0
43	0.0
44	0.0
45	0.0
46	0.0
47	0.0
48	0.0014
49	0.0
50	0.1111
51	0.0007
52	0.1
53	0.0
54	0.0
55	0.0
56	0.0
57	0.0
58	1.131
59	4.0188
60	0.0256
61	0.0
62	1.0
63	0.0059
64	0.0
65	0.0059
66	0.0
67	0.0
68	0.0
69	0.0
70	0.0
71	0.0769
72	0.0
73	0.0
74	0.0
75	0.0
76	0.0
77	0.0
78	0.0
79	0.0
80	0.0
81	0.0003
82	0.1111
83	0.5719
84	0.0
85	0.0
86	0.0002
87	0.0025
88	0.0
89	0.0833
90	0.0148
91	0.0
92	0.0238
93	0.006
94	0.0
95	0.0774
96	0.0007
97	0.125
98	0.0
99	0.0
100	0.0003
101	0.0
102	0.0
103	0.0
104	0.0
105	0.0
106	0.125
107	0.0
108	0.0
109	0.0
110	0.0769
111	0.0
112	0.125
113	0.0003
114	0.0059
115	0.0
116	0.0
117	0.0739
118	0.0
119	0.0
120	0.0
121	0.0
122	0.0769
123	0.0
124	0.0
125	0.0
126	0.0004
127	0.0
128	0.0059
129	0.0
130	0.0
131	0.2026
132	0.1667
133	0.1111
134	0.0909
135	0.1004
136	0.0938
137	0.1875
138	0.0
139	0.0
140	0.0
141	0.0
142	0.2604
143	0.1876
144	0.0
145	0.0
146	0.0
147	0.0498
148	0.0469
149	0.0
150	0.1227
151	0.0388
152	0.0286
153	0.0241
154	0.0069
155	0.0
156	0.0769
157	0.0
158	0.0
159	0.0
160	0.0
161	0.0
162	0.0
163	0.0
164	0.0
165	0.1111
166	0.0
167	0.0
168	0.0
169	0.0
170	0.0
171	0.0
172	0.0
173	0.0
174	0.0
175	0.0769
176	0.0
177	0.0
178	0.0257
179	0.0059
180	0.0
181	0.0
182	0.0
183	0.0
184	0.0
185	0.0
186	0.0
187	0.0
188	0.0013
189	0.0
190	0.0
191	0.0
192	0.0
193	0.0
194	0.0769
195	0.0
196	0.0
197	0.0
198	0.0
199	0.0
200	0.0
