Position	Value
-200	120772.1804
-199	59864.6291
-198	59700.892
-197	60588.0142
-196	60478.6287
-195	60918.3808
-194	61010.4564
-193	60986.6137
-192	60398.6578
-191	60722.4456
-190	60774.0369
-189	60350.8395
-188	61059.2395
-187	61825.3122
-186	60917.3253
-185	60997.2874
-184	62482.3269
-183	61805.6235
-182	60029.1088
-181	62062.4288
-180	61933.2611
-179	59826.5846
-178	60428.9107
-177	62423.7453
-176	61035.6476
-175	61068.5534
-174	62166.6908
-173	60935.2781
-172	62359.9771
-171	61717.0536
-170	60781.2396
-169	63390.3801
-168	62379.843
-167	62139.5516
-166	62095.0725
-165	63457.0482
-164	62067.2387
-163	63109.1748
-162	63995.6624
-161	62870.5533
-160	62569.1823
-159	63974.3909
-158	63014.6768
-157	62710.7943
-156	64360.4409
-155	62921.5899
-154	62752.5974
-153	62972.9392
-152	64229.5164
-151	63184.8752
-150	64003.7803
-149	63572.5181
-148	62512.6388
-147	63488.7769
-146	62500.5061
-145	64194.5016
-144	63640.3567
-143	62493.1259
-142	64357.0027
-141	61752.6416
-140	64337.5612
-139	63439.6901
-138	63945.9116
-137	63570.7551
-136	64054.7153
-135	65187.1614
-134	64292.5777
-133	64458.513
-132	65605.8862
-131	65594.385
-130	67232.132
-129	66936.9403
-128	66235.848
-127	65997.6521
-126	67085.1976
-125	65825.7532
-124	66279.017
-123	66039.4106
-122	65725.4441
-121	64511.2776
-120	66206.2049
-119	64502.3864
-118	64448.9456
-117	64724.19
-116	63902.0191
-115	64943.7207
-114	65539.8574
-113	65855.7906
-112	63794.0826
-111	65718.8142
-110	65486.9043
-109	65026.5388
-108	66757.0586
-107	66064.4422
-106	65378.3498
-105	67742.2762
-104	65633.7206
-103	65764.5829
-102	68286.3386
-101	67691.9774
-100	68673.8537
-99	68750.2888
-98	70042.9823
-97	69124.4271
-96	70452.9575
-95	70243.02
-94	71666.7669
-93	70707.8407
-92	69779.6533
-91	70332.092
-90	68459.2067
-89	69632.0349
-88	68479.3447
-87	67991.3042
-86	68342.2859
-85	65960.1087
-84	67376.0816
-83	65289.1634
-82	65461.5565
-81	67651.833
-80	65828.5179
-79	66922.1107
-78	67174.865
-77	68891.154
-76	68003.491
-75	69498.9775
-74	68762.003
-73	68655.2685
-72	69764.4558
-71	69144.496
-70	72183.1419
-69	73073.8736
-68	73594.0209
-67	75458.3947
-66	76162.7562
-65	77428.7022
-64	76807.4978
-63	78040.2261
-62	77488.3337
-61	77643.9313
-60	76483.4646
-59	75304.8162
-58	75655.5754
-57	73021.5716
-56	71079.6464
-55	71942.4928
-54	71139.7149
-53	71313.6619
-52	71892.9761
-51	71181.1778
-50	69267.285
-49	70610.1648
-48	71784.4359
-47	71414.7914
-46	69757.2447
-45	71041.8058
-44	70229.4854
-43	71482.6361
-42	73826.308
-41	73642.7319
-40	73193.7494
-39	73836.5032
-38	76536.2666
-37	77253.9121
-36	81217.3048
-35	81148.4542
-34	83508.496
-33	85313.1715
-32	87543.3224
-31	88028.0225
-30	89629.5043
-29	85665.3737
-28	81122.1242
-27	76043.6492
-26	75197.8436
-25	75195.99
-24	75434.5346
-23	76682.8083
-22	76095.8679
-21	79696.1663
-20	81218.6978
-19	81602.7284
-18	83699.5926
-17	83864.867
-16	83245.8814
-15	85076.6341
-14	88651.4952
-13	91339.5194
-12	94886.2074
-11	97576.8655
-10	98368.9392
-9	103856.9121
-8	107407.9786
-7	111899.0466
-6	115328.8457
-5	123280.1477
-4	133048.6512
-3	144456.1784
-2	124229.4912
-1	120407.8797
0	731236.2403
1	120407.8797
2	124229.4912
3	144456.1784
4	133048.6512
5	123280.1477
6	115328.8457
7	111899.0466
8	107407.9786
9	103856.9121
10	98368.9392
11	97576.8655
12	94886.2074
13	91339.5194
14	88651.4952
15	85076.6341
16	83245.8814
17	83864.867
18	83699.5926
19	81602.7284
20	81218.6978
21	79696.1663
22	76095.8679
23	76682.8083
24	75434.5346
25	75195.99
26	75197.8436
27	76043.6492
28	81122.1242
29	85665.3737
30	89629.5043
31	88028.0225
32	87543.3224
33	85313.1715
34	83508.496
35	81148.4542
36	81217.3048
37	77253.9121
38	76536.2666
39	73836.5032
40	73193.7494
41	73642.7319
42	73826.308
43	71482.6361
44	70229.4854
45	71041.8058
46	69757.2447
47	71414.7914
48	71784.4359
49	70610.1648
50	69267.285
51	71181.1778
52	71892.9761
53	71313.6619
54	71139.7149
55	71942.4928
56	71079.6464
57	73021.5716
58	75655.5754
59	75304.8162
60	76483.4646
61	77643.9313
62	77488.3337
63	78040.2261
64	76807.4978
65	77428.7022
66	76162.7562
67	75458.3947
68	73594.0209
69	73073.8736
70	72183.1419
71	69144.496
72	69764.4558
73	68655.2685
74	68762.003
75	69498.9775
76	68003.491
77	68891.154
78	67174.865
79	66922.1107
80	65828.5179
81	67651.833
82	65461.5565
83	65289.1634
84	67376.0816
85	65960.1087
86	68342.2859
87	67991.3042
88	68479.3447
89	69632.0349
90	68459.2067
91	70332.092
92	69779.6533
93	70707.8407
94	71666.7669
95	70243.02
96	70452.9575
97	69124.4271
98	70042.9823
99	68750.2888
100	68673.8537
101	67691.9774
102	68286.3386
103	65764.5829
104	65633.7206
105	67742.2762
106	65378.3498
107	66064.4422
108	66757.0586
109	65026.5388
110	65486.9043
111	65718.8142
112	63794.0826
113	65855.7906
114	65539.8574
115	64943.7207
116	63902.0191
117	64724.19
118	64448.9456
119	64502.3864
120	66206.2049
121	64511.2776
122	65725.4441
123	66039.4106
124	66279.017
125	65825.7532
126	67085.1976
127	65997.6521
128	66235.848
129	66936.9403
130	67232.132
131	65594.385
132	65605.8862
133	64458.513
134	64292.5777
135	65187.1614
136	64054.7153
137	63570.7551
138	63945.9116
139	63439.6901
140	64337.5612
141	61752.6416
142	64357.0027
143	62493.1259
144	63640.3567
145	64194.5016
146	62500.5061
147	63488.7769
148	62512.6388
149	63572.5181
150	64003.7803
151	63184.8752
152	64229.5164
153	62972.9392
154	62752.5974
155	62921.5899
156	64360.4409
157	62710.7943
158	63014.6768
159	63974.3909
160	62569.1823
161	62870.5533
162	63995.6624
163	63109.1748
164	62067.2387
165	63457.0482
166	62095.0725
167	62139.5516
168	62379.843
169	63390.3801
170	60781.2396
171	61717.0536
172	62359.9771
173	60935.2781
174	62166.6908
175	61068.5534
176	61035.6476
177	62423.7453
178	60428.9107
179	59826.5846
180	61933.2611
181	62062.4288
182	60029.1088
183	61805.6235
184	62482.3269
185	60997.2874
186	60917.3253
187	61825.3122
188	61059.2395
189	60350.8395
190	60774.0369
191	60722.4456
192	60398.6578
193	60986.6137
194	61010.4564
195	60918.3808
196	60478.6287
197	60588.0142
198	59700.892
199	59864.6291
200	120772.1804
