Position	Value
-200	67494.7
-199	68608
-198	69153.7
-197	68682.1
-196	68269.6
-195	68724.1
-194	68822.8
-193	68781
-192	68784.9
-191	67965.9
-190	68795.5
-189	69793
-188	69716.7
-187	69529.6
-186	68485.5
-185	68857.4
-184	69985.9
-183	69553.3
-182	68770.6
-181	69238.1
-180	69240.7
-179	69398.6
-178	69362.1
-177	69326.3
-176	69025.3
-175	69234.8
-174	69882.8
-173	69227.9
-172	68944.5
-171	70679.3
-170	69335
-169	70101.7
-168	70028.3
-167	70145.2
-166	70591.7
-165	71053.2
-164	71044
-163	70734.7
-162	70574.2
-161	70995.1
-160	71290.4
-159	71799.1
-158	71516
-157	71306
-156	72911.1
-155	71799.7
-154	71698.6
-153	72086.8
-152	72727.4
-151	71985.3
-150	71460.5
-149	71577.4
-148	70899.4
-147	71162.7
-146	70924.2
-145	71152.3
-144	72078.1
-143	70836.4
-142	70926
-141	70852
-140	70726.4
-139	70318.8
-138	71181.1
-137	72263.6
-136	71835.4
-135	72339.3
-134	72566.4
-133	72910.4
-132	73592.5
-131	73714.7
-130	73893.7
-129	74041.2
-128	74205.9
-127	74796.1
-126	76100.1
-125	75346.8
-124	76881.6
-123	77196
-122	76220.8
-121	75792.7
-120	76534
-119	75126.6
-118	75608.6
-117	75348.4
-116	74310.7
-115	73646.3
-114	74734.1
-113	73810.8
-112	72840.8
-111	74307.9
-110	73571.3
-109	73667.2
-108	74214.9
-107	73776.6
-106	73730.3
-105	74198.4
-104	73629.4
-103	73531.4
-102	75627.3
-101	75319.4
-100	75487.3
-99	77009.5
-98	76886.1
-97	76444.2
-96	76764.9
-95	78067.4
-94	77880.3
-93	78760.3
-92	79343.1
-91	79147.4
-90	79515.4
-89	79132.3
-88	78518.7
-87	78319.1
-86	78069.3
-85	76926.1
-84	77840.8
-83	75500.4
-82	76732.7
-81	75961.5
-80	75373.5
-79	75686.9
-78	75258.2
-77	75845.1
-76	76343.2
-75	77456
-74	76454.8
-73	77005.2
-72	78895.1
-71	79099.9
-70	79395.7
-69	81751
-68	81111.8
-67	82059.3
-66	84186.9
-65	84865.8
-64	83785.3
-63	86430.1
-62	86774.6
-61	86233.9
-60	86025
-59	86072.8
-58	85082
-57	84491
-56	82686.9
-55	83652.9
-54	82312.9
-53	80827.5
-52	81112.5
-51	80971.6
-50	79127.2
-49	78611.8
-48	80101.4
-47	79310.9
-46	79447.5
-45	80385.4
-44	79636.1
-43	81004.7
-42	81255.8
-41	81897.9
-40	81582.2
-39	83649
-38	84353.2
-37	85543.4
-36	87356
-35	87702.9
-34	88860.4
-33	92626.7
-32	92682.5
-31	93907.5
-30	95732.4
-29	93614.2
-28	94796.3
-27	95962.2
-26	90787.8
-25	86940.2
-24	86714.4
-23	87150.5
-22	89200.4
-21	92354.1
-20	92795.9
-19	94745.5
-18	97203.1
-17	98861.7
-16	101141
-15	105220
-14	106338
-13	109921
-12	116431
-11	120404
-10	125595
-9	135299
-8	141087
-7	149279
-6	162566
-5	181834
-4	192614
-3	213930
-2	224196
-1	255695
0	975719
1	255695
2	224196
3	213930
4	192614
5	181834
6	162566
7	149279
8	141087
9	135299
10	125595
11	120404
12	116431
13	109921
14	106338
15	105220
16	101141
17	98861.7
18	97203.1
19	94745.5
20	92795.9
21	92354.1
22	89200.4
23	87150.5
24	86714.4
25	86940.2
26	90787.8
27	95962.2
28	94796.3
29	93614.2
30	95732.4
31	93907.5
32	92682.5
33	92626.7
34	88860.4
35	87702.9
36	87356
37	85543.4
38	84353.2
39	83649
40	81582.2
41	81897.9
42	81255.8
43	81004.7
44	79636.1
45	80385.4
46	79447.5
47	79310.9
48	80101.4
49	78611.8
50	79127.2
51	80971.6
52	81112.5
53	80827.5
54	82312.9
55	83652.9
56	82686.9
57	84491
58	85082
59	86072.8
60	86025
61	86233.9
62	86774.6
63	86430.1
64	83785.3
65	84865.8
66	84186.9
67	82059.3
68	81111.8
69	81751
70	79395.7
71	79099.9
72	78895.1
73	77005.2
74	76454.8
75	77456
76	76343.2
77	75845.1
78	75258.2
79	75686.9
80	75373.5
81	75961.5
82	76732.7
83	75500.4
84	77840.8
85	76926.1
86	78069.3
87	78319.1
88	78518.7
89	79132.3
90	79515.4
91	79147.4
92	79343.1
93	78760.3
94	77880.3
95	78067.4
96	76764.9
97	76444.2
98	76886.1
99	77009.5
100	75487.3
101	75319.4
102	75627.3
103	73531.4
104	73629.4
105	74198.4
106	73730.3
107	73776.6
108	74214.9
109	73667.2
110	73571.3
111	74307.9
112	72840.8
113	73810.8
114	74734.1
115	73646.3
116	74310.7
117	75348.4
118	75608.6
119	75126.6
120	76534
121	75792.7
122	76220.8
123	77196
124	76881.6
125	75346.8
126	76100.1
127	74796.1
128	74205.9
129	74041.2
130	73893.7
131	73714.7
132	73592.5
133	72910.4
134	72566.4
135	72339.3
136	71835.4
137	72263.6
138	71181.1
139	70318.8
140	70726.4
141	70852
142	70926
143	70836.4
144	72078.1
145	71152.3
146	70924.2
147	71162.7
148	70899.4
149	71577.4
150	71460.5
151	71985.3
152	72727.4
153	72086.8
154	71698.6
155	71799.7
156	72911.1
157	71306
158	71516
159	71799.1
160	71290.4
161	70995.1
162	70574.2
163	70734.7
164	71044
165	71053.2
166	70591.7
167	70145.2
168	70028.3
169	70101.7
170	69335
171	70679.3
172	68944.5
173	69227.9
174	69882.8
175	69234.8
176	69025.3
177	69326.3
178	69362.1
179	69398.6
180	69240.7
181	69238.1
182	68770.6
183	69553.3
184	69985.9
185	68857.4
186	68485.5
187	69529.6
188	69716.7
189	69793
190	68795.5
191	67965.9
192	68784.9
193	68781
194	68822.8
195	68724.1
196	68269.6
197	68682.1
198	69153.7
199	68608
200	67494.7
