Position	Value
-200	5522.9509
-199	11410.1866
-198	11069.0182
-197	11229.2765
-196	11574.1502
-195	11596.3146
-194	11414.1743
-193	11155.5038
-192	11312.7892
-191	11301.6673
-190	11356.669
-189	11911.6055
-188	11697.176
-187	12218.1621
-186	12202.7048
-185	11806.1002
-184	11588.7818
-183	11902.7084
-182	11300.5967
-181	11272.4688
-180	11619.872
-179	11498.2299
-178	11263.862
-177	11613.5778
-176	11674.6089
-175	11052.6454
-174	11383.7827
-173	10923.3412
-172	11043.4766
-171	11522.9164
-170	11142.856
-169	11380.9278
-168	11410.6383
-167	11748.294
-166	11757.0027
-165	12136.17
-164	11822.0487
-163	12269.4416
-162	12196.6971
-161	11802.4895
-160	12017.2235
-159	11786.7455
-158	11926.5371
-157	11604.686
-156	11931.767
-155	12398.371
-154	11959.3531
-153	12084.8762
-152	12240.5381
-151	11279.0447
-150	11906.354
-149	11979.7757
-148	11598.4143
-147	11143.6593
-146	11012.3855
-145	11345.5244
-144	11379.0699
-143	11539.4771
-142	11507.9361
-141	11155.6658
-140	11096.6253
-139	11184.8925
-138	11252.8365
-137	11520.9768
-136	11619.7652
-135	11949.1141
-134	12565.3695
-133	12080.4847
-132	12795.6888
-131	12865.2791
-130	12913.0331
-129	12874.4218
-128	12738.2279
-127	12979.649
-126	13119.5775
-125	13644.7242
-124	13167.0633
-123	13617.551
-122	13897.4209
-121	13288.9286
-120	13650.2852
-119	13004.1229
-118	12769.8285
-117	11998.2639
-116	11651.7374
-115	11627.4793
-114	12084.0136
-113	11661.2928
-112	11457.8004
-111	12329.2247
-110	12064.0952
-109	11840.0244
-108	12018.0757
-107	12203.1049
-106	11579.1732
-105	11849.6963
-104	11956.3026
-103	12168.1255
-102	12688.857
-101	12851.3168
-100	12683.822
-99	13229.8178
-98	13206.6777
-97	13262.9993
-96	13409.9263
-95	13397.1808
-94	12939.4746
-93	13529.575
-92	13437.9464
-91	13542.302
-90	13674.7816
-89	13871.5679
-88	13558.7979
-87	13338.825
-86	13112.9493
-85	12222.2114
-84	12245.7793
-83	11542.804
-82	11725.1343
-81	11991.9068
-80	11590.2206
-79	12488.7334
-78	12580.065
-77	12493.3194
-76	12681.7566
-75	12664.3466
-74	12611.7986
-73	12374.8666
-72	12855.844
-71	13352.281
-70	13429.3942
-69	14251.2184
-68	13846.6623
-67	14503.9533
-66	14754.4511
-65	14757.4318
-64	14880.559
-63	15387.5514
-62	15483.7217
-61	15628.5564
-60	15583.3899
-59	15607.2677
-58	15776.8324
-57	15419.6331
-56	14913.8498
-55	14851.6092
-54	14269.397
-53	13850.5647
-52	13759.649
-51	13516.1174
-50	13268.8785
-49	12819.9566
-48	13286.244
-47	13069.5078
-46	13136.6235
-45	13513.7296
-44	13441.0556
-43	13669.2707
-42	13860.9924
-41	13801.5242
-40	13882.045
-39	14350.1636
-38	14762.4877
-37	14726.6009
-36	15441.8318
-35	16155.6319
-34	16738.7193
-33	17296.2007
-32	17464.1462
-31	16958.5797
-30	17308.0152
-29	16581.6577
-28	15799.0162
-27	15449.7412
-26	14597.9882
-25	14159.1114
-24	14412.486
-23	14567.6955
-22	14826.7407
-21	15402.0133
-20	15329.7245
-19	15292.4905
-18	15685.8288
-17	15857.2441
-16	16077.2888
-15	16425.5123
-14	17540.2595
-13	18062.8675
-12	19987.2303
-11	21043.0345
-10	21045.634
-9	22708.4745
-8	23964.9468
-7	26185.8421
-6	27101.4053
-5	30608.1812
-4	33981.2134
-3	39173.9384
-2	41257.0945
-1	42911.4748
0	219907.2887
1	42911.4748
2	41257.0945
3	39173.9384
4	33981.2134
5	30608.1812
6	27101.4053
7	26185.8421
8	23964.9468
9	22708.4745
10	21045.634
11	21043.0345
12	19987.2303
13	18062.8675
14	17540.2595
15	16425.5123
16	16077.2888
17	15857.2441
18	15685.8288
19	15292.4905
20	15329.7245
21	15402.0133
22	14826.7407
23	14567.6955
24	14412.486
25	14159.1114
26	14597.9882
27	15449.7412
28	15799.0162
29	16581.6577
30	17308.0152
31	16958.5797
32	17464.1462
33	17296.2007
34	16738.7193
35	16155.6319
36	15441.8318
37	14726.6009
38	14762.4877
39	14350.1636
40	13882.045
41	13801.5242
42	13860.9924
43	13669.2707
44	13441.0556
45	13513.7296
46	13136.6235
47	13069.5078
48	13286.244
49	12819.9566
50	13268.8785
51	13516.1174
52	13759.649
53	13850.5647
54	14269.397
55	14851.6092
56	14913.8498
57	15419.6331
58	15776.8324
59	15607.2677
60	15583.3899
61	15628.5564
62	15483.7217
63	15387.5514
64	14880.559
65	14757.4318
66	14754.4511
67	14503.9533
68	13846.6623
69	14251.2184
70	13429.3942
71	13352.281
72	12855.844
73	12374.8666
74	12611.7986
75	12664.3466
76	12681.7566
77	12493.3194
78	12580.065
79	12488.7334
80	11590.2206
81	11991.9068
82	11725.1343
83	11542.804
84	12245.7793
85	12222.2114
86	13112.9493
87	13338.825
88	13558.7979
89	13871.5679
90	13674.7816
91	13542.302
92	13437.9464
93	13529.575
94	12939.4746
95	13397.1808
96	13409.9263
97	13262.9993
98	13206.6777
99	13229.8178
100	12683.822
101	12851.3168
102	12688.857
103	12168.1255
104	11956.3026
105	11849.6963
106	11579.1732
107	12203.1049
108	12018.0757
109	11840.0244
110	12064.0952
111	12329.2247
112	11457.8004
113	11661.2928
114	12084.0136
115	11627.4793
116	11651.7374
117	11998.2639
118	12769.8285
119	13004.1229
120	13650.2852
121	13288.9286
122	13897.4209
123	13617.551
124	13167.0633
125	13644.7242
126	13119.5775
127	12979.649
128	12738.2279
129	12874.4218
130	12913.0331
131	12865.2791
132	12795.6888
133	12080.4847
134	12565.3695
135	11949.1141
136	11619.7652
137	11520.9768
138	11252.8365
139	11184.8925
140	11096.6253
141	11155.6658
142	11507.9361
143	11539.4771
144	11379.0699
145	11345.5244
146	11012.3855
147	11143.6593
148	11598.4143
149	11979.7757
150	11906.354
151	11279.0447
152	12240.5381
153	12084.8762
154	11959.3531
155	12398.371
156	11931.767
157	11604.686
158	11926.5371
159	11786.7455
160	12017.2235
161	11802.4895
162	12196.6971
163	12269.4416
164	11822.0487
165	12136.17
166	11757.0027
167	11748.294
168	11410.6383
169	11380.9278
170	11142.856
171	11522.9164
172	11043.4766
173	10923.3412
174	11383.7827
175	11052.6454
176	11674.6089
177	11613.5778
178	11263.862
179	11498.2299
180	11619.872
181	11272.4688
182	11300.5967
183	11902.7084
184	11588.7818
185	11806.1002
186	12202.7048
187	12218.1621
188	11697.176
189	11911.6055
190	11356.669
191	11301.6673
192	11312.7892
193	11155.5038
194	11414.1743
195	11596.3146
196	11574.1502
197	11229.2765
198	11069.0182
199	11410.1866
200	5522.9509
