Position	Value
-200	47189.8422
-199	94487.5106
-198	94185.9748
-197	94445.3125
-196	93993.1572
-195	95153.3579
-194	96115.484
-193	95326.1585
-192	95407.8698
-191	95835.3675
-190	96545.7063
-189	96589.7296
-188	96498.0526
-187	96587.7252
-186	95094.9884
-185	96170.129
-184	97185.4724
-183	96242.4726
-182	95433.9146
-181	96704.6107
-180	95920.2598
-179	95140.2424
-178	94937.4323
-177	96645.6191
-176	96469.1821
-175	95141.2208
-174	96946.8679
-173	97051.8702
-172	96613.3887
-171	96683.0771
-170	96498.5859
-169	98183.1998
-168	96577.9886
-167	97217.7881
-166	96616.7667
-165	96939.1361
-164	97071.3165
-163	97942.5551
-162	98706.2833
-161	97719.9282
-160	98201.5433
-159	97826.4458
-158	98132.7441
-157	96645.5033
-156	98655.7031
-155	97545.0338
-154	97406.8357
-153	97101.6813
-152	98857.5119
-151	97970.4254
-150	97776.5912
-149	97958.1119
-148	98278.969
-147	98536.3861
-146	98656.29
-145	100377.9124
-144	99830.2922
-143	99723.5259
-142	99919.1633
-141	99363.2372
-140	100236.1767
-139	100363.3794
-138	100943.0212
-137	101410.6531
-136	102086.7641
-135	102869.8146
-134	101689.2027
-133	101335.8844
-132	103980.6498
-131	102697.1184
-130	104231.3768
-129	103338.5348
-128	103188.463
-127	103178.4056
-126	104642.2755
-125	103371.4549
-124	102652.1759
-123	102878.4576
-122	102014.6808
-121	100896.485
-120	103376.9144
-119	102458.42
-118	102472.1275
-117	102223.3598
-116	101083.4544
-115	102849.1044
-114	103789.5924
-113	103515.1796
-112	102443.9555
-111	103836.9738
-110	103875.4779
-109	103756.7869
-108	105505.8597
-107	105453.6193
-106	104654.3761
-105	105558.3186
-104	104715.7389
-103	104999.6128
-102	105441.2066
-101	105777.9855
-100	107052.5453
-99	107480.1954
-98	108016.7155
-97	107101.9872
-96	108040.8087
-95	107891.7201
-94	107186.7564
-93	107108.8496
-92	105830.5774
-91	105884.3231
-90	105541.3194
-89	106585.6521
-88	106656.873
-87	107023.5816
-86	107233.6439
-85	105057.0387
-84	107166.4846
-83	104483.8346
-82	105969.0944
-81	107112.1074
-80	106756.5294
-79	107442.8636
-78	107837.5343
-77	109279.6627
-76	109471.0505
-75	110299.3825
-74	109234.0966
-73	110103.8715
-72	112061.7969
-71	112738.4749
-70	113921.9144
-69	115786.2169
-68	115488.8258
-67	116133.957
-66	117862.745
-65	118423.006
-64	117667.2613
-63	117989.1452
-62	116492.878
-61	116224.0653
-60	115398.5131
-59	115760.7644
-58	115744.5076
-57	114799.0896
-56	113348.2681
-55	112923.0236
-54	112738.8768
-53	112794.1099
-52	113813.3106
-51	113880.9451
-50	112554.1615
-49	113222.6703
-48	114349.1533
-47	113150.6179
-46	112465.4093
-45	112962.7235
-44	112003.1529
-43	114510.3621
-42	116017.333
-41	115609.657
-40	116319.1334
-39	118172.802
-38	118729.8078
-37	119892.5893
-36	123719.8041
-35	124028.2379
-34	126245.9534
-33	128253.6858
-32	129545.8664
-31	129567.9556
-30	130278.8477
-29	124991.7257
-28	120448.2242
-27	117087.4604
-26	118256.6181
-25	118458.9687
-24	119282.9567
-23	121098.785
-22	123055.9216
-21	129258.07
-20	130928.1384
-19	133771.1334
-18	135551.2551
-17	136728.4019
-16	138152.7696
-15	141204.7145
-14	143188.7496
-13	148765.6375
-12	154971.9587
-11	158963.0979
-10	160893.7256
-9	167754.481
-8	171729.4317
-7	179718.1882
-6	183715.6487
-5	199281.029
-4	217384.9814
-3	238780.398
-2	234264.7543
-1	257478.9297
0	988505.8081
1	257478.9297
2	234264.7543
3	238780.398
4	217384.9814
5	199281.029
6	183715.6487
7	179718.1882
8	171729.4317
9	167754.481
10	160893.7256
11	158963.0979
12	154971.9586
13	148765.6375
14	143188.7496
15	141204.7145
16	138152.7696
17	136728.4019
18	135551.2551
19	133771.1334
20	130928.1384
21	129258.07
22	123055.9216
23	121098.785
24	119282.9567
25	118458.9687
26	118256.6181
27	117087.4604
28	120448.2242
29	124991.7257
30	130278.8477
31	129567.9556
32	129545.8664
33	128253.6858
34	126245.9534
35	124028.2379
36	123719.8041
37	119892.5893
38	118729.8078
39	118172.802
40	116319.1334
41	115609.657
42	116017.333
43	114510.3621
44	112003.1529
45	112962.7235
46	112465.4093
47	113150.6179
48	114349.1533
49	113222.6703
50	112554.1615
51	113880.9451
52	113813.3106
53	112794.1099
54	112738.8768
55	112923.0236
56	113348.2681
57	114799.0896
58	115744.5076
59	115760.7644
60	115398.5131
61	116224.0653
62	116492.878
63	117989.1452
64	117667.2613
65	118423.006
66	117862.745
67	116133.957
68	115488.8258
69	115786.2169
70	113921.9144
71	112738.4749
72	112061.7969
73	110103.8715
74	109234.0966
75	110299.3825
76	109471.0505
77	109279.6627
78	107837.5343
79	107442.8636
80	106756.5294
81	107112.1074
82	105969.0944
83	104483.8346
84	107166.4846
85	105057.0387
86	107233.6439
87	107023.5816
88	106656.873
89	106585.6521
90	105541.3194
91	105884.3231
92	105830.5774
93	107108.8496
94	107186.7564
95	107891.7201
96	108040.8087
97	107101.9872
98	108016.7155
99	107480.1954
100	107052.5453
101	105777.9855
102	105441.2066
103	104999.6128
104	104715.7389
105	105558.3186
106	104654.3761
107	105453.6193
108	105505.8597
109	103756.7869
110	103875.4779
111	103836.9738
112	102443.9555
113	103515.1796
114	103789.5924
115	102849.1044
116	101083.4544
117	102223.3598
118	102472.1275
119	102458.42
120	103376.9144
121	100896.485
122	102014.6808
123	102878.4576
124	102652.1759
125	103371.4549
126	104642.2755
127	103178.4056
128	103188.463
129	103338.5348
130	104231.3768
131	102697.1184
132	103980.6498
133	101335.8844
134	101689.2027
135	102869.8146
136	102086.7641
137	101410.6531
138	100943.0212
139	100363.3794
140	100236.1767
141	99363.2372
142	99919.1633
143	99723.5259
144	99830.2922
145	100377.9124
146	98656.29
147	98536.3861
148	98278.969
149	97958.1119
150	97776.5912
151	97970.4254
152	98857.5119
153	97101.6813
154	97406.8357
155	97545.0338
156	98655.7031
157	96645.5033
158	98132.7441
159	97826.4458
160	98201.5433
161	97719.9282
162	98706.2833
163	97942.5551
164	97071.3165
165	96939.1361
166	96616.7667
167	97217.7881
168	96577.9886
169	98183.1998
170	96498.5859
171	96683.0771
172	96613.3887
173	97051.8702
174	96946.8679
175	95141.2208
176	96469.1821
177	96645.6191
178	94937.4323
179	95140.2424
180	95920.2598
181	96704.6107
182	95433.9146
183	96242.4726
184	97185.4724
185	96170.129
186	95094.9884
187	96587.7252
188	96498.0526
189	96589.7296
190	96545.7063
191	95835.3675
192	95407.8698
193	95326.1585
194	96115.484
195	95153.3579
196	93993.1572
197	94445.3125
198	94185.9748
199	94487.5106
200	47189.8422
