Position	Value
-200	3830.22
-199	3915.94
-198	3922
-197	3765.69
-196	3903.18
-195	4008.66
-194	3924.94
-193	3898.56
-192	4057.66
-191	3974.75
-190	3966.9
-189	3895.64
-188	4261.68
-187	3983.16
-186	4127.26
-185	3940.92
-184	4082.52
-183	4270.6
-182	4122.69
-181	4027.7
-180	4133.32
-179	3991.69
-178	4018.79
-177	4160.08
-176	4028.32
-175	3954.39
-174	3954.33
-173	4023.05
-172	4259.06
-171	3963.94
-170	4100.51
-169	4145.86
-168	3979.23
-167	3972.61
-166	3987.05
-165	4311.04
-164	4149.34
-163	3958.13
-162	4136.76
-161	3917.67
-160	4063.06
-159	4138.88
-158	4346.16
-157	4234.49
-156	4380.63
-155	4377.31
-154	4373.59
-153	4371.57
-152	4163.73
-151	4357.04
-150	4239.55
-149	4332.33
-148	4300.24
-147	4368.16
-146	3947.11
-145	4078.77
-144	4152.49
-143	4110.36
-142	4103.33
-141	4185.62
-140	4060.93
-139	4345.16
-138	4113.45
-137	4296.96
-136	4234.46
-135	4309.73
-134	4143.97
-133	4201.92
-132	4603.48
-131	4468.97
-130	4448.21
-129	4495.42
-128	4585.49
-127	4448.59
-126	4789.29
-125	4433.81
-124	4526.28
-123	4582.61
-122	4582.99
-121	4625.54
-120	4678.73
-119	4601.82
-118	4396.8
-117	4173.89
-116	4033.69
-115	3913.9
-114	4238.06
-113	4084.87
-112	4215.23
-111	4098.52
-110	4151.51
-109	4088.63
-108	4152.74
-107	4220.75
-106	4174.64
-105	4201.98
-104	4150.08
-103	4374.73
-102	4464.78
-101	4461.39
-100	4682.47
-99	4814.79
-98	4760.69
-97	4784.09
-96	4811.18
-95	4818.41
-94	4867.18
-93	5141.81
-92	5221.98
-91	4942.84
-90	4896.06
-89	4740.29
-88	4769.26
-87	4664.58
-86	4561.99
-85	4362.04
-84	4316.82
-83	4322.7
-82	4314.41
-81	4397.64
-80	4334.4
-79	4388.85
-78	4587.55
-77	4401.52
-76	4298.55
-75	4511.84
-74	4442.6
-73	4621.13
-72	4684.05
-71	4590.35
-70	4736.93
-69	5044.47
-68	4992.87
-67	4918.1
-66	5227.28
-65	5165.69
-64	5618.58
-63	5756.89
-62	5769.88
-61	5706.01
-60	5670.13
-59	5763.79
-58	5527.9
-57	5235.92
-56	4857.54
-55	4890.58
-54	4659.39
-53	4759.12
-52	4663.83
-51	4582.81
-50	4595.2
-49	4453.27
-48	4542.14
-47	4491
-46	4553.15
-45	4322.51
-44	4501.54
-43	4645.74
-42	4844.64
-41	4857.43
-40	5007.53
-39	5023.51
-38	5156.93
-37	5283.07
-36	5710.94
-35	5657.63
-34	6209.02
-33	6442.05
-32	6704.77
-31	6792.8
-30	7361.19
-29	6907.41
-28	6732.9
-27	5989.05
-26	4946.02
-25	5049.99
-24	5151.62
-23	5012.99
-22	5373.77
-21	5813.71
-20	5468.1
-19	5912.41
-18	6420.41
-17	6147.88
-16	6563.8
-15	6646.87
-14	7257.1
-13	7718.01
-12	8467.45
-11	9565.29
-10	9605.06
-9	10472.5
-8	11143.1
-7	12559.9
-6	13792.7
-5	15195.2
-4	16244.4
-3	17695.8
-2	18751.7
-1	18853.9
0	246929
1	18853.9
2	18751.7
3	17695.8
4	16244.4
5	15195.2
6	13792.7
7	12559.9
8	11143.1
9	10472.5
10	9605.06
11	9565.29
12	8467.45
13	7718.01
14	7257.1
15	6646.87
16	6563.8
17	6147.88
18	6420.41
19	5912.41
20	5468.1
21	5813.71
22	5373.77
23	5012.99
24	5151.62
25	5049.99
26	4946.02
27	5989.05
28	6732.9
29	6907.41
30	7361.19
31	6792.8
32	6704.77
33	6442.05
34	6209.02
35	5657.63
36	5710.94
37	5283.07
38	5156.93
39	5023.51
40	5007.53
41	4857.43
42	4844.64
43	4645.74
44	4501.54
45	4322.51
46	4553.15
47	4491
48	4542.14
49	4453.27
50	4595.2
51	4582.81
52	4663.83
53	4759.12
54	4659.39
55	4890.58
56	4857.54
57	5235.92
58	5527.9
59	5763.79
60	5670.13
61	5706.01
62	5769.88
63	5756.89
64	5618.58
65	5165.69
66	5227.28
67	4918.1
68	4992.87
69	5044.47
70	4736.93
71	4590.35
72	4684.05
73	4621.13
74	4442.6
75	4511.84
76	4298.55
77	4401.52
78	4587.55
79	4388.85
80	4334.4
81	4397.64
82	4314.41
83	4322.7
84	4316.82
85	4362.04
86	4561.99
87	4664.58
88	4769.26
89	4740.29
90	4896.06
91	4942.84
92	5221.98
93	5141.81
94	4867.18
95	4818.41
96	4811.18
97	4784.09
98	4760.69
99	4814.79
100	4682.47
101	4461.39
102	4464.78
103	4374.73
104	4150.08
105	4201.98
106	4174.64
107	4220.75
108	4152.74
109	4088.63
110	4151.51
111	4098.52
112	4215.23
113	4084.87
114	4238.06
115	3913.9
116	4033.69
117	4173.89
118	4396.8
119	4601.82
120	4678.73
121	4625.54
122	4582.99
123	4582.61
124	4526.28
125	4433.81
126	4789.29
127	4448.59
128	4585.49
129	4495.42
130	4448.21
131	4468.97
132	4603.48
133	4201.92
134	4143.97
135	4309.73
136	4234.46
137	4296.96
138	4113.45
139	4345.16
140	4060.93
141	4185.62
142	4103.33
143	4110.36
144	4152.49
145	4078.77
146	3947.11
147	4368.16
148	4300.24
149	4332.33
150	4239.55
151	4357.04
152	4163.73
153	4371.57
154	4373.59
155	4377.31
156	4380.63
157	4234.49
158	4346.16
159	4138.88
160	4063.06
161	3917.67
162	4136.76
163	3958.13
164	4149.34
165	4311.04
166	3987.05
167	3972.61
168	3979.23
169	4145.86
170	4100.51
171	3963.94
172	4259.06
173	4023.05
174	3954.33
175	3954.39
176	4028.32
177	4160.08
178	4018.79
179	3991.69
180	4133.32
181	4027.7
182	4122.69
183	4270.6
184	4082.52
185	3940.92
186	4127.26
187	3983.16
188	4261.68
189	3895.64
190	3966.9
191	3974.75
192	4057.66
193	3898.56
194	3924.94
195	4008.66
196	3903.18
197	3765.69
198	3922
199	3915.94
200	3830.22
