Position	Value
-200	0.0
-199	0.0497
-198	0.1008
-197	0.0
-196	0.003
-195	0.0207
-194	0.0382
-193	0.0214
-192	0.5002
-191	0.0
-190	0.0
-189	0.2106
-188	0.2105
-187	0.155
-186	0.1638
-185	0.1605
-184	0.0525
-183	0.0
-182	0.25
-181	0.0
-180	0.001
-179	0.0
-178	0.0
-177	0.0001
-176	0.1049
-175	0.1574
-174	0.1574
-173	0.053
-172	17.5
-171	0.0
-170	0.0
-169	0.0
-168	0.0
-167	0.2222
-166	0.2222
-165	0.5
-164	0.3273
-163	0.2749
-162	0.1124
-161	0.0556
-160	0.4045
-159	0.0556
-158	0.0556
-157	0.0556
-156	0.1211
-155	0.2834
-154	0.3753
-153	0.3414
-152	0.2066
-151	1.2393
-150	0.3198
-149	0.145
-148	0.2774
-147	0.1076
-146	0.035
-145	0.2042
-144	0.2866
-143	0.3811
-142	0.0525
-141	0.0556
-140	0.3894
-139	0.5558
-138	0.0
-137	0.0004
-136	0.0556
-135	0.6111
-134	0.0
-133	0.0
-132	0.2556
-131	0.0
-130	0.1429
-129	0.0
-128	0.001
-127	0.001
-126	0.5366
-125	0.1121
-124	0.0586
-123	0.1728
-122	0.2747
-121	0.3272
-120	0.3333
-119	0.1121
-118	0.1686
-117	0.1111
-116	0.2756
-115	0.0
-114	0.0002
-113	0.0
-112	0.0016
-111	0.0
-110	0.0585
-109	42.152
-108	0.1491
-107	0.0996
-106	0.0
-105	0.125
-104	0.3751
-103	0.1806
-102	0.1111
-101	0.1111
-100	0.3405
-99	0.5802
-98	0.6597
-97	0.125
-96	0.151
-95	0.05
-94	0.0625
-93	0.1875
-92	0.1947
-91	0.0766
-90	0.1532
-89	0.2316
-88	0.1848
-87	0.1819
-86	0.2895
-85	0.0
-84	0.0263
-83	0.0
-82	1.5
-81	1.0
-80	1.0
-79	2.0002
-78	3.0
-77	2.0526
-76	0.0
-75	0.2476
-74	0.0
-73	0.0
-72	0.0
-71	0.1667
-70	0.0
-69	0.0222
-68	0.0168
-67	0.0497
-66	0.601
-65	0.001
-64	0.2025
-63	0.0507
-62	0.2
-61	0.45
-60	0.0
-59	0.25
-58	0.1053
-57	0.0926
-56	31.1059
-55	0.0626
-54	0.0527
-53	35.0529
-52	0.0
-51	0.0256
-50	0.0001
-49	0.0001
-48	4.0
-47	0.0
-46	1.1637
-45	0.6111
-44	0.2771
-43	0.224
-42	0.1123
-41	0.0556
-40	2.1304
-39	0.1299
-38	0.375
-37	0.125
-36	0.0
-35	0.0
-34	0.1678
-33	0.0001
-32	0.0
-31	0.0556
-30	0.0
-29	0.2
-28	0.0
-27	0.0
-26	0.0
-25	0.0103
-24	0.0
-23	0.0526
-22	0.1579
-21	0.1111
-20	0.0556
-19	0.0556
-18	0.0
-17	0.0476
-16	0.2778
-15	0.0
-14	0.1053
-13	0.2105
-12	0.0
-11	0.0556
-10	0.0557
-9	0.1111
-8	5.8321
-7	0.2001
-6	0.3548
-5	1.3657
-4	0.6264
-3	7.5788
-2	9.5183
-1	25.1196
0	1408.317
1	25.1196
2	9.5183
3	7.5788
4	0.6264
5	1.3657
6	0.3548
7	0.2001
8	5.8321
9	0.1111
10	0.0557
11	0.0556
12	0.0
13	0.2105
14	0.1053
15	0.0
16	0.2778
17	0.0476
18	0.0
19	0.0556
20	0.0556
21	0.1111
22	0.1579
23	0.0526
24	0.0
25	0.0103
26	0.0
27	0.0
28	0.0
29	0.2
30	0.0
31	0.0556
32	0.0
33	0.0001
34	0.1678
35	0.0
36	0.0
37	0.125
38	0.375
39	0.1299
40	2.1304
41	0.0556
42	0.1123
43	0.224
44	0.2771
45	0.6111
46	1.1637
47	0.0
48	4.0
49	0.0001
50	0.0001
51	0.0256
52	0.0
53	35.0529
54	0.0527
55	0.0626
56	31.1059
57	0.0926
58	0.1053
59	0.25
60	0.0
61	0.45
62	0.2
63	0.0507
64	0.2025
65	0.001
66	0.601
67	0.0497
68	0.0168
69	0.0222
70	0.0
71	0.1667
72	0.0
73	0.0
74	0.0
75	0.2476
76	0.0
77	2.0526
78	3.0
79	2.0002
80	1.0
81	1.0
82	1.5
83	0.0
84	0.0263
85	0.0
86	0.2895
87	0.1819
88	0.1848
89	0.2316
90	0.1532
91	0.0766
92	0.1947
93	0.1875
94	0.0625
95	0.05
96	0.151
97	0.125
98	0.6597
99	0.5802
100	0.3405
101	0.1111
102	0.1111
103	0.1806
104	0.3751
105	0.125
106	0.0
107	0.0996
108	0.1491
109	42.152
110	0.0585
111	0.0
112	0.0016
113	0.0
114	0.0002
115	0.0
116	0.2756
117	0.1111
118	0.1686
119	0.1121
120	0.3333
121	0.3272
122	0.2747
123	0.1728
124	0.0586
125	0.1121
126	0.5366
127	0.001
128	0.001
129	0.0
130	0.1429
131	0.0
132	0.2556
133	0.0
134	0.0
135	0.6111
136	0.0556
137	0.0004
138	0.0
139	0.5558
140	0.3894
141	0.0556
142	0.0525
143	0.3811
144	0.2866
145	0.2042
146	0.035
147	0.1076
148	0.2774
149	0.145
150	0.3198
151	1.2393
152	0.2066
153	0.3414
154	0.3753
155	0.2834
156	0.1211
157	0.0556
158	0.0556
159	0.0556
160	0.4045
161	0.0556
162	0.1124
163	0.2749
164	0.3273
165	0.5
166	0.2222
167	0.2222
168	0.0
169	0.0
170	0.0
171	0.0
172	17.5
173	0.053
174	0.1574
175	0.1574
176	0.1049
177	0.0001
178	0.0
179	0.0
180	0.001
181	0.0
182	0.25
183	0.0
184	0.0525
185	0.1605
186	0.1638
187	0.155
188	0.2105
189	0.2106
190	0.0
191	0.0
192	0.5002
193	0.0214
194	0.0382
195	0.0207
196	0.003
197	0.0
198	0.1008
199	0.0497
200	0.0
