Position	Value
-200	84444.5349
-199	169892.6878
-198	170197.9017
-197	169939.4855
-196	170739.9862
-195	175329.5616
-194	173948.8007
-193	172772.9255
-192	174289.7033
-191	173984.5656
-190	172382.3103
-189	175014.5356
-188	172999.6707
-187	174071.6723
-186	175334.048
-185	175253.4131
-184	173756.3943
-183	175171.6488
-182	176378.5154
-181	174565.1128
-180	174001.7379
-179	171776.4921
-178	173389.1352
-177	174978.3575
-176	173717.744
-175	171990.9169
-174	171110.3601
-173	173435.568
-172	171689.452
-171	175388.918
-170	172500.9413
-169	174894.5403
-168	174857.5129
-167	173631.8356
-166	173739.7868
-165	179080.3944
-164	176775.0231
-163	176481.3705
-162	179440.9779
-161	178929.2685
-160	179363.6953
-159	181526.6983
-158	180045.6745
-157	181944.33
-156	183756.9135
-155	181494.1138
-154	181484.0004
-153	181520.2322
-152	181523.8943
-151	180382.1475
-150	179378.5524
-149	177447.1018
-148	176482.6187
-147	179002.0376
-146	175418.8092
-145	177838.0978
-144	177846.4312
-143	175456.7664
-142	173436.6049
-141	175469.3877
-140	178240.9624
-139	177420.2178
-138	178972.8968
-137	176001.2201
-136	178763.8552
-135	182010.4746
-134	178659.2455
-133	179919.9691
-132	184679.4845
-131	182391.4546
-130	183884.1706
-129	186626.9655
-128	186970.1124
-127	187498.6356
-126	191424.4749
-125	187094.3637
-124	188954.2123
-123	191044.7664
-122	189375.2425
-121	187922.6933
-120	187618.3242
-119	186014.0986
-118	184390.7245
-117	184727.3641
-116	181245.3721
-115	179276.8536
-114	181885.2183
-113	179765.7187
-112	178161.2697
-111	179991.4838
-110	179135.4992
-109	178954.6751
-108	182309.173
-107	179055.6584
-106	178259.4669
-105	181084.0123
-104	182927.8706
-103	182434.3928
-102	188139.4168
-101	185485.3511
-100	187749.5531
-99	191615.0976
-98	192101.7023
-97	194419.4114
-96	196726.3064
-95	200378.3685
-94	198320.632
-93	202872.0016
-92	199924.9121
-91	198862.2772
-90	200810.1516
-89	196929.5429
-88	194100.0396
-87	192758.9141
-86	188792.4545
-85	186389.2262
-84	185480.8384
-83	182265.6087
-82	181736.3687
-81	181395.5094
-80	181674.0345
-79	179484.6225
-78	180327.0121
-77	179457.2223
-76	182686.6484
-75	184779.9065
-74	182282.9568
-73	185062.8801
-72	190652.7573
-71	188897.8762
-70	192733.8263
-69	197462.5988
-68	197088.7887
-67	199843.8414
-66	206987.5152
-65	208325.8327
-64	212068.7471
-63	217554.5187
-62	220170.2399
-61	218815.9878
-60	217762.2202
-59	216429.1338
-58	211077.734
-57	207178.4689
-56	196014.4611
-55	193380.4159
-54	191276.1446
-53	186674.5467
-52	186604.5495
-51	187170.6396
-50	185219.6096
-49	182050.6116
-48	185192.3988
-47	182118.2172
-46	184287.8752
-45	186758.2135
-44	182346.4814
-43	183961.3325
-42	191435.5739
-41	189842.3178
-40	192075.757
-39	198984.0421
-38	198316.3545
-37	201857.1611
-36	212002.5362
-35	216768.703
-34	224354.7211
-33	236884.1291
-32	241433.5593
-31	249047.292
-30	261650.9035
-29	248633.6733
-28	235183.5912
-27	222734.4387
-26	207428.0352
-25	199070.9689
-24	198767.2245
-23	197651.3098
-22	199814.4957
-21	211090.3559
-20	211032.9493
-19	215119.3951
-18	220189.6698
-17	222885.6703
-16	228274.2212
-15	236355.3341
-14	238547.0443
-13	249493.9422
-12	270993.0594
-11	283633.3768
-10	290643.1959
-9	298023.2466
-8	306787.444
-7	333331.6442
-6	352857.7111
-5	374548.9339
-4	403944.4515
-3	440815.8483
-2	434475.1005
-1	448313.0726
0	4359810.9652
1	448313.0726
2	434475.1005
3	440815.8483
4	403944.4515
5	374548.9339
6	352857.7111
7	333331.6442
8	306787.444
9	298023.2466
10	290643.1959
11	283633.3768
12	270993.0594
13	249493.9422
14	238547.0443
15	236355.3341
16	228274.2212
17	222885.6703
18	220189.6698
19	215119.3951
20	211032.9493
21	211090.3559
22	199814.4957
23	197651.3098
24	198767.2245
25	199070.9689
26	207428.0352
27	222734.4387
28	235183.5912
29	248633.6733
30	261650.9035
31	249047.292
32	241433.5593
33	236884.1291
34	224354.7211
35	216768.703
36	212002.5362
37	201857.1611
38	198316.3545
39	198984.0421
40	192075.757
41	189842.3178
42	191435.5739
43	183961.3325
44	182346.4814
45	186758.2135
46	184287.8752
47	182118.2172
48	185192.3988
49	182050.6116
50	185219.6096
51	187170.6396
52	186604.5495
53	186674.5467
54	191276.1446
55	193380.4159
56	196014.4611
57	207178.4689
58	211077.734
59	216429.1338
60	217762.2202
61	218815.9878
62	220170.2399
63	217554.5187
64	212068.7471
65	208325.8327
66	206987.5152
67	199843.8414
68	197088.7887
69	197462.5988
70	192733.8263
71	188897.8762
72	190652.7573
73	185062.8801
74	182282.9568
75	184779.9065
76	182686.6484
77	179457.2223
78	180327.0121
79	179484.6225
80	181674.0345
81	181395.5094
82	181736.3687
83	182265.6087
84	185480.8384
85	186389.2262
86	188792.4545
87	192758.9141
88	194100.0396
89	196929.5429
90	200810.1516
91	198862.2772
92	199924.9121
93	202872.0016
94	198320.632
95	200378.3685
96	196726.3064
97	194419.4114
98	192101.7023
99	191615.0976
100	187749.5531
101	185485.3511
102	188139.4168
103	182434.3928
104	182927.8706
105	181084.0123
106	178259.4669
107	179055.6584
108	182309.173
109	178954.6751
110	179135.4992
111	179991.4838
112	178161.2697
113	179765.7187
114	181885.2183
115	179276.8536
116	181245.3721
117	184727.3641
118	184390.7245
119	186014.0986
120	187618.3242
121	187922.6933
122	189375.2425
123	191044.7664
124	188954.2123
125	187094.3637
126	191424.4749
127	187498.6356
128	186970.1124
129	186626.9655
130	183884.1706
131	182391.4546
132	184679.4845
133	179919.9691
134	178659.2455
135	182010.4746
136	178763.8552
137	176001.2201
138	178972.8968
139	177420.2178
140	178240.9624
141	175469.3877
142	173436.6049
143	175456.7664
144	177846.4312
145	177838.0978
146	175418.8092
147	179002.0376
148	176482.6187
149	177447.1018
150	179378.5524
151	180382.1475
152	181523.8943
153	181520.2322
154	181484.0004
155	181494.1138
156	183756.9135
157	181944.33
158	180045.6745
159	181526.6983
160	179363.6953
161	178929.2685
162	179440.9779
163	176481.3705
164	176775.0231
165	179080.3944
166	173739.7868
167	173631.8356
168	174857.5129
169	174894.5403
170	172500.9413
171	175388.918
172	171689.452
173	173435.568
174	171110.3601
175	171990.9169
176	173717.744
177	174978.3575
178	173389.1352
179	171776.4921
180	174001.7379
181	174565.1128
182	176378.5154
183	175171.6488
184	173756.3943
185	175253.4131
186	175334.048
187	174071.6723
188	172999.6707
189	175014.5356
190	172382.3103
191	173984.5656
192	174289.7033
193	172772.9255
194	173948.8007
195	175329.5616
196	170739.9862
197	169939.4855
198	170197.9017
199	169892.6878
200	84444.5349
