Position	Value
-200	33313.1122
-199	66458.3986
-198	65914.6359
-197	66228.1098
-196	66076.8882
-195	67392.2152
-194	67168.2398
-193	67150.9962
-192	67581.0113
-191	67424.5738
-190	67734.7
-189	67432.151
-188	67714.7769
-187	67468.9333
-186	68932.3414
-185	67568.8314
-184	68266.6304
-183	68662.7961
-182	67681.741
-181	68975.0817
-180	68358.4113
-179	66808.5188
-178	67283.7183
-177	68796.5402
-176	66696.1093
-175	66484.0028
-174	67881.2996
-173	66495.0923
-172	66961.0883
-171	67494.1035
-170	66416.759
-169	67093.4813
-168	67502.0374
-167	67235.2676
-166	67248.0537
-165	68171.9432
-164	67342.8896
-163	68003.0516
-162	67981.4328
-161	67075.0382
-160	68121.2916
-159	68109.7547
-158	68080.1972
-157	68458.2727
-156	68948.6982
-155	68253.5565
-154	68629.5371
-153	68685.8417
-152	69489.3653
-151	69383.2752
-150	68828.5148
-149	69406.1486
-148	67908.2202
-147	69281.1
-146	68279.8527
-145	69484.1131
-144	68638.3536
-143	67820.8133
-142	68603.9144
-141	67912.9225
-140	68694.1069
-139	68201.5124
-138	69077.1424
-137	68758.186
-136	68888.5275
-135	69940.9859
-134	68292.185
-133	68384.5658
-132	69757.8933
-131	69123.9626
-130	70609.6459
-129	70363.7926
-128	70854.5048
-127	70756.3848
-126	71163.5495
-125	70784.3944
-124	71305.1322
-123	71460.883
-122	70806.9345
-121	70646.2682
-120	71056.3568
-119	71189.6182
-118	70712.8768
-117	70907.9899
-116	69360.6888
-115	70127.0512
-114	70442.0207
-113	70061.7388
-112	69296.9651
-111	70543.9859
-110	69923.9732
-109	69937.8979
-108	70346.8827
-107	69674.5078
-106	69558.9675
-105	69703.6338
-104	69589.2207
-103	69918.017
-102	70375.0836
-101	69577.9805
-100	69173.7221
-99	71277.7999
-98	71487.495
-97	70654.1354
-96	72309.1402
-95	71462.0041
-94	71774.2372
-93	71752.8141
-92	71621.7161
-91	71889.2108
-90	72202.9921
-89	71962.4735
-88	72350.5583
-87	71642.8991
-86	70861.4214
-85	70223.409
-84	70743.7796
-83	69161.229
-82	70282.5086
-81	70189.2533
-80	70483.407
-79	70016.4002
-78	69203.0481
-77	71184.1575
-76	70573.0927
-75	71103.1955
-74	71919.9731
-73	70604.9274
-72	71988.6459
-71	71368.6184
-70	73340.0021
-69	73823.8699
-68	71988.4406
-67	72779.2623
-66	74851.0084
-65	75318.6121
-64	74815.6564
-63	76177.9392
-62	75894.1151
-61	76309.6111
-60	75214.7091
-59	75745.7159
-58	77264.7491
-57	75221.6084
-56	74519.3485
-55	75475.0337
-54	74589.4783
-53	73806.0385
-52	75065.9884
-51	74638.4684
-50	74691.1777
-49	73612.208
-48	75809.4138
-47	74721.4883
-46	74675.3005
-45	74744.945
-44	73154.9066
-43	73272.2189
-42	74398.7111
-41	73083.3416
-40	74071.2681
-39	73302.1631
-38	73700.8954
-37	74234.9087
-36	75408.94
-35	75289.8533
-34	76225.3062
-33	77082.8822
-32	79175.1854
-31	79794.5395
-30	78812.3039
-29	73446.8011
-28	77801.76
-27	84120.1962
-26	79335.4833
-25	70775.8772
-24	73419.9092
-23	76962.3642
-22	78607.1199
-21	80995.8116
-20	83045.5833
-19	84312.5226
-18	84487.8398
-17	86620.6974
-16	87138.7986
-15	89931.9977
-14	88753.3391
-13	92086.7253
-12	98089.9178
-11	100708.776
-10	102498.5899
-9	106440.3533
-8	111957.6085
-7	119094.7652
-6	125184.64
-5	135611.5925
-4	153096.7787
-3	169324.1218
-2	162225.377
-1	157405.271
0	724890.8961
1	157405.271
2	162225.377
3	169324.1218
4	153096.7787
5	135611.5925
6	125184.64
7	119094.7652
8	111957.6085
9	106440.3533
10	102498.5899
11	100708.776
12	98089.9178
13	92086.7253
14	88753.3391
15	89931.9977
16	87138.7986
17	86620.6974
18	84487.8398
19	84312.5226
20	83045.5833
21	80995.8116
22	78607.1199
23	76962.3642
24	73419.9092
25	70775.8772
26	79335.4833
27	84120.1962
28	77801.76
29	73446.8011
30	78812.3039
31	79794.5395
32	79175.1854
33	77082.8822
34	76225.3062
35	75289.8533
36	75408.94
37	74234.9087
38	73700.8954
39	73302.1631
40	74071.2681
41	73083.3416
42	74398.7111
43	73272.2189
44	73154.9066
45	74744.945
46	74675.3005
47	74721.4883
48	75809.4138
49	73612.208
50	74691.1777
51	74638.4684
52	75065.9884
53	73806.0385
54	74589.4783
55	75475.0337
56	74519.3485
57	75221.6084
58	77264.7491
59	75745.7159
60	75214.7091
61	76309.6111
62	75894.1151
63	76177.9392
64	74815.6564
65	75318.6121
66	74851.0084
67	72779.2623
68	71988.4406
69	73823.8699
70	73340.0021
71	71368.6184
72	71988.6459
73	70604.9274
74	71919.9731
75	71103.1955
76	70573.0927
77	71184.1575
78	69203.0481
79	70016.4002
80	70483.407
81	70189.2533
82	70282.5086
83	69161.229
84	70743.7796
85	70223.409
86	70861.4214
87	71642.8991
88	72350.5583
89	71962.4735
90	72202.9921
91	71889.2108
92	71621.7161
93	71752.8141
94	71774.2372
95	71462.0041
96	72309.1402
97	70654.1354
98	71487.495
99	71277.7999
100	69173.7221
101	69577.9805
102	70375.0836
103	69918.017
104	69589.2207
105	69703.6338
106	69558.9675
107	69674.5078
108	70346.8827
109	69937.8979
110	69923.9732
111	70543.9859
112	69296.9651
113	70061.7388
114	70442.0207
115	70127.0512
116	69360.6888
117	70907.9899
118	70712.8768
119	71189.6182
120	71056.3568
121	70646.2682
122	70806.9345
123	71460.883
124	71305.1322
125	70784.3944
126	71163.5495
127	70756.3848
128	70854.5048
129	70363.7926
130	70609.6459
131	69123.9626
132	69757.8933
133	68384.5658
134	68292.185
135	69940.9859
136	68888.5275
137	68758.186
138	69077.1424
139	68201.5124
140	68694.1069
141	67912.9225
142	68603.9144
143	67820.8133
144	68638.3536
145	69484.1131
146	68279.8527
147	69281.1
148	67908.2202
149	69406.1486
150	68828.5148
151	69383.2752
152	69489.3653
153	68685.8417
154	68629.5371
155	68253.5565
156	68948.6982
157	68458.2727
158	68080.1972
159	68109.7547
160	68121.2916
161	67075.0382
162	67981.4328
163	68003.0516
164	67342.8896
165	68171.9432
166	67248.0537
167	67235.2676
168	67502.0374
169	67093.4813
170	66416.759
171	67494.1035
172	66961.0883
173	66495.0923
174	67881.2996
175	66484.0028
176	66696.1093
177	68796.5402
178	67283.7183
179	66808.5188
180	68358.4113
181	68975.0817
182	67681.741
183	68662.7961
184	68266.6304
185	67568.8314
186	68932.3414
187	67468.9333
188	67714.7769
189	67432.151
190	67734.7
191	67424.5738
192	67581.0113
193	67150.9962
194	67168.2398
195	67392.2152
196	66076.8882
197	66228.1098
198	65914.6359
199	66458.3986
200	33313.1122
