Position	Value
-200	128630.5625
-199	64210.5254
-198	63603.988
-197	64176.0642
-196	64007.8282
-195	64989.3483
-194	64535.7882
-193	64768.8977
-192	63851.3735
-191	64693.7467
-190	64752.992
-189	64606.3643
-188	65517.3482
-187	64940.4957
-186	65095.1553
-185	64887.1161
-184	64915.4637
-183	65028.2535
-182	64821.6873
-181	65382.044
-180	65673.6845
-179	63556.2068
-178	64844.0682
-177	66019.3583
-176	65179.4335
-175	64306.7661
-174	65566.7401
-173	65849.7887
-172	66095.7922
-171	65932.9545
-170	65157.5191
-169	67041.5354
-168	66117.7674
-167	65530.4907
-166	66437.0781
-165	66388.2157
-164	66093.4467
-163	66218.1879
-162	66890.1348
-161	65811.2995
-160	64863.1517
-159	66347.3926
-158	66564.3484
-157	65346.5488
-156	66943.4983
-155	66471.6635
-154	65893.1376
-153	65846.7346
-152	67541.2429
-151	66949.4073
-150	66565.8321
-149	66572.4776
-148	66708.5261
-147	66663.3434
-146	65446.6283
-145	67060.9295
-144	66448.3398
-143	65958.3719
-142	66939.2948
-141	65730.9543
-140	67596.7329
-139	68436.6445
-138	66979.0459
-137	67047.6023
-136	68259.2296
-135	68936.8238
-134	67981.5531
-133	67295.9329
-132	68819.2426
-131	69060.5265
-130	70784.279
-129	70390.5862
-128	68676.8589
-127	70199.8438
-126	71574.913
-125	69364.6927
-124	69769.2557
-123	70394.9744
-122	69061.4661
-121	69123.9792
-120	70683.2376
-119	68419.9417
-118	68413.5397
-117	68753.0078
-116	67260.3726
-115	68151.9087
-114	69042.8189
-113	68936.4504
-112	67377.1507
-111	69021.6123
-110	69522.447
-109	68690.6037
-108	69936.043
-107	69900.1432
-106	68525.5094
-105	69518.0909
-104	69167.3167
-103	68441.5186
-102	71115.7378
-101	69847.484
-100	70783.5167
-99	71492.801
-98	71867.2433
-97	71060.3079
-96	72783.9445
-95	72719.5866
-94	73568.7836
-93	72996.0763
-92	73118.6998
-91	73140.4928
-90	71458.3693
-89	72101.315
-88	72077.4664
-87	71379.9065
-86	71336.0914
-85	68887.9668
-84	71233.1704
-83	69290.8845
-82	69227.1026
-81	70805.532
-80	69259.1719
-79	70453.5644
-78	70364.5993
-77	70723.0522
-76	72014.6884
-75	72382.4801
-74	70260.4044
-73	72005.0663
-72	73340.7097
-71	72548.4618
-70	74655.0137
-69	75271.4029
-68	74551.8178
-67	75300.5712
-66	77594.6622
-65	77727.0771
-64	77756.8348
-63	79086.1821
-62	79026.432
-61	78591.3071
-60	78168.7843
-59	78495.6228
-58	78812.6305
-57	76464.963
-56	74634.6186
-55	75341.0751
-54	74637.4075
-53	74263.5594
-52	74759.8564
-51	74372.5294
-50	72504.5591
-49	73053.2264
-48	74686.2367
-47	73642.3692
-46	72541.6138
-45	72778.3845
-44	72082.828
-43	72581.0839
-42	75158.9997
-41	74698.0933
-40	74046.984
-39	74792.9462
-38	77213.4659
-37	77705.0411
-36	79958.281
-35	79170.5064
-34	80844.2035
-33	83293.7438
-32	82799.658
-31	82977.5726
-30	86442.2368
-29	87462.9768
-28	86668.0586
-27	79732.3406
-26	77311.7003
-25	75419.0466
-24	76847.1223
-23	76553.9802
-22	75962.3713
-21	80059.263
-20	81724.0517
-19	83854.0231
-18	84838.3519
-17	85842.3072
-16	84655.4595
-15	87567.0082
-14	89082.0022
-13	91688.4612
-12	97210.574
-11	98367.5928
-10	98218.9392
-9	103609.9711
-8	105356.3116
-7	108634.8037
-6	113035.1746
-5	118142.5537
-4	129393.7776
-3	139831.3065
-2	122770.4194
-1	119925.3419
0	666402.7843
1	119925.3419
2	122770.4194
3	139831.3065
4	129393.7776
5	118142.5537
6	113035.1746
7	108634.8037
8	105356.3116
9	103609.9711
10	98218.9392
11	98367.5928
12	97210.574
13	91688.4612
14	89082.0022
15	87567.0082
16	84655.4595
17	85842.3072
18	84838.3519
19	83854.0231
20	81724.0517
21	80059.263
22	75962.3713
23	76553.9802
24	76847.1223
25	75419.0466
26	77311.7003
27	79732.3406
28	86668.0586
29	87462.9768
30	86442.2368
31	82977.5726
32	82799.658
33	83293.7438
34	80844.2035
35	79170.5064
36	79958.281
37	77705.0411
38	77213.4659
39	74792.9462
40	74046.984
41	74698.0933
42	75158.9997
43	72581.0839
44	72082.828
45	72778.3845
46	72541.6138
47	73642.3692
48	74686.2367
49	73053.2264
50	72504.5591
51	74372.5294
52	74759.8564
53	74263.5594
54	74637.4075
55	75341.0751
56	74634.6186
57	76464.963
58	78812.6305
59	78495.6228
60	78168.7843
61	78591.3071
62	79026.432
63	79086.1821
64	77756.8348
65	77727.0771
66	77594.6622
67	75300.5712
68	74551.8178
69	75271.4029
70	74655.0137
71	72548.4618
72	73340.7097
73	72005.0663
74	70260.4044
75	72382.4801
76	72014.6884
77	70723.0522
78	70364.5993
79	70453.5644
80	69259.1719
81	70805.532
82	69227.1026
83	69290.8845
84	71233.1704
85	68887.9668
86	71336.0914
87	71379.9065
88	72077.4664
89	72101.315
90	71458.3693
91	73140.4928
92	73118.6998
93	72996.0763
94	73568.7836
95	72719.5866
96	72783.9445
97	71060.3079
98	71867.2433
99	71492.801
100	70783.5167
101	69847.484
102	71115.7378
103	68441.5186
104	69167.3167
105	69518.0909
106	68525.5094
107	69900.1432
108	69936.043
109	68690.6037
110	69522.447
111	69021.6123
112	67377.1507
113	68936.4504
114	69042.8189
115	68151.9087
116	67260.3726
117	68753.0078
118	68413.5397
119	68419.9417
120	70683.2376
121	69123.9792
122	69061.4661
123	70394.9744
124	69769.2557
125	69364.6927
126	71574.913
127	70199.8438
128	68676.8589
129	70390.5862
130	70784.279
131	69060.5265
132	68819.2426
133	67295.9329
134	67981.5531
135	68936.8238
136	68259.2296
137	67047.6023
138	66979.0459
139	68436.6445
140	67596.7329
141	65730.9543
142	66939.2948
143	65958.3719
144	66448.3398
145	67060.9295
146	65446.6283
147	66663.3434
148	66708.5261
149	66572.4776
150	66565.8321
151	66949.4073
152	67541.2429
153	65846.7346
154	65893.1376
155	66471.6635
156	66943.4983
157	65346.5488
158	66564.3484
159	66347.3926
160	64863.1517
161	65811.2995
162	66890.1348
163	66218.1879
164	66093.4467
165	66388.2157
166	66437.0781
167	65530.4907
168	66117.7674
169	67041.5354
170	65157.5191
171	65932.9545
172	66095.7922
173	65849.7887
174	65566.7401
175	64306.7661
176	65179.4335
177	66019.3583
178	64844.0682
179	63556.2068
180	65673.6845
181	65382.044
182	64821.6873
183	65028.2535
184	64915.4637
185	64887.1161
186	65095.1553
187	64940.4957
188	65517.3482
189	64606.3643
190	64752.992
191	64693.7467
192	63851.3735
193	64768.8977
194	64535.7882
195	64989.3483
196	64007.8282
197	64176.0642
198	63603.988
199	64210.5254
200	128630.5625
