Position	Value
-200	0.0
-199	0.0
-198	0.375
-197	0.375
-196	0.0
-195	0.0
-194	0.0
-193	0.0
-192	0.0
-191	0.0
-190	0.0
-189	0.0
-188	0.0
-187	0.0
-186	0.0
-185	0.0185
-184	0.0
-183	0.0
-182	0.0
-181	0.0
-180	1.1111
-179	0.0
-178	0.0
-177	0.0
-176	0.0
-175	0.0
-174	0.0
-173	0.0
-172	0.0
-171	0.0
-170	0.0
-169	0.3333
-168	0.0
-167	0.0
-166	0.05
-165	0.0
-164	0.0
-163	0.0
-162	0.0
-161	0.0
-160	0.0
-159	0.0
-158	0.0
-157	0.0
-156	0.0
-155	0.0
-154	0.0
-153	0.1706
-152	0.0
-151	0.0952
-150	0.4603
-149	0.0
-148	0.123
-147	0.0278
-146	0.1349
-145	0.0
-144	0.0
-143	0.0
-142	0.0
-141	0.0
-140	0.0
-139	0.0
-138	0.08
-137	0.08
-136	0.0
-135	0.0
-134	0.0
-133	0.0
-132	0.0
-131	0.0
-130	0.0
-129	0.0
-128	0.0
-127	0.0
-126	0.0
-125	0.0
-124	0.25
-123	0.0
-122	0.0833
-121	0.0
-120	0.0
-119	0.0
-118	0.0
-117	0.0
-116	0.0
-115	0.0
-114	0.0
-113	1.0
-112	0.0
-111	0.0
-110	0.0571
-109	0.1071
-108	0.0
-107	0.0625
-106	0.0
-105	0.25
-104	0.0
-103	0.0
-102	0.0
-101	0.0625
-100	0.0
-99	0.25
-98	0.0
-97	0.0556
-96	0.0278
-95	0.0
-94	0.0
-93	0.0
-92	0.0
-91	0.0
-90	0.0
-89	0.0
-88	0.0
-87	0.0
-86	0.0
-85	0.0
-84	0.0
-83	0.0
-82	0.0014
-81	0.0
-80	0.0
-79	0.0
-78	0.0
-77	0.0
-76	0.0
-75	0.0
-74	0.0833
-73	0.0833
-72	0.0
-71	0.0
-70	0.0
-69	0.1111
-68	0.0
-67	0.0
-66	0.0
-65	0.0
-64	0.0
-63	0.1111
-62	0.0
-61	0.0
-60	0.0
-59	0.0
-58	0.0
-57	0.04
-56	0.15
-55	0.0
-54	0.0
-53	0.0
-52	0.0
-51	0.0
-50	0.0
-49	0.0
-48	0.0
-47	0.0
-46	0.0
-45	1.0
-44	0.0
-43	0.0
-42	0.0
-41	0.0
-40	0.0
-39	0.0
-38	0.0
-37	0.0
-36	0.0
-35	0.0
-34	0.0
-33	0.0
-32	0.0
-31	0.0
-30	0.0
-29	0.0
-28	0.1143
-27	0.0
-26	0.125
-25	0.5
-24	0.0833
-23	0.5833
-22	0.0
-21	0.0
-20	0.5
-19	0.0
-18	0.0
-17	0.0
-16	0.0
-15	0.0
-14	0.0
-13	0.0
-12	0.0
-11	0.0
-10	0.0
-9	0.0
-8	0.0
-7	0.0
-6	0.0
-5	2.0
-4	4.0
-3	1.0
-2	3.5
-1	2.625
0	426.4288
1	2.625
2	3.5
3	1.0
4	4.0
5	2.0
6	0.0
7	0.0
8	0.0
9	0.0
10	0.0
11	0.0
12	0.0
13	0.0
14	0.0
15	0.0
16	0.0
17	0.0
18	0.0
19	0.0
20	0.5
21	0.0
22	0.0
23	0.5833
24	0.0833
25	0.5
26	0.125
27	0.0
28	0.1143
29	0.0
30	0.0
31	0.0
32	0.0
33	0.0
34	0.0
35	0.0
36	0.0
37	0.0
38	0.0
39	0.0
40	0.0
41	0.0
42	0.0
43	0.0
44	0.0
45	1.0
46	0.0
47	0.0
48	0.0
49	0.0
50	0.0
51	0.0
52	0.0
53	0.0
54	0.0
55	0.0
56	0.15
57	0.04
58	0.0
59	0.0
60	0.0
61	0.0
62	0.0
63	0.1111
64	0.0
65	0.0
66	0.0
67	0.0
68	0.0
69	0.1111
70	0.0
71	0.0
72	0.0
73	0.0833
74	0.0833
75	0.0
76	0.0
77	0.0
78	0.0
79	0.0
80	0.0
81	0.0
82	0.0014
83	0.0
84	0.0
85	0.0
86	0.0
87	0.0
88	0.0
89	0.0
90	0.0
91	0.0
92	0.0
93	0.0
94	0.0
95	0.0
96	0.0278
97	0.0556
98	0.0
99	0.25
100	0.0
101	0.0625
102	0.0
103	0.0
104	0.0
105	0.25
106	0.0
107	0.0625
108	0.0
109	0.1071
110	0.0571
111	0.0
112	0.0
113	1.0
114	0.0
115	0.0
116	0.0
117	0.0
118	0.0
119	0.0
120	0.0
121	0.0
122	0.0833
123	0.0
124	0.25
125	0.0
126	0.0
127	0.0
128	0.0
129	0.0
130	0.0
131	0.0
132	0.0
133	0.0
134	0.0
135	0.0
136	0.0
137	0.08
138	0.08
139	0.0
140	0.0
141	0.0
142	0.0
143	0.0
144	0.0
145	0.0
146	0.1349
147	0.0278
148	0.123
149	0.0
150	0.4603
151	0.0952
152	0.0
153	0.1706
154	0.0
155	0.0
156	0.0
157	0.0
158	0.0
159	0.0
160	0.0
161	0.0
162	0.0
163	0.0
164	0.0
165	0.0
166	0.05
167	0.0
168	0.0
169	0.3333
170	0.0
171	0.0
172	0.0
173	0.0
174	0.0
175	0.0
176	0.0
177	0.0
178	0.0
179	0.0
180	1.1111
181	0.0
182	0.0
183	0.0
184	0.0
185	0.0185
186	0.0
187	0.0
188	0.0
189	0.0
190	0.0
191	0.0
192	0.0
193	0.0
194	0.0
195	0.0
196	0.0
197	0.375
198	0.375
199	0.0
200	0.0
