Position	Value
-200	3325.5886
-199	6990.8445
-198	6716.957
-197	6536.3064
-196	6774.7403
-195	6971.7168
-194	6652.2759
-193	6578.6624
-192	6565.1364
-191	6666.3623
-190	6847.3799
-189	6679.737
-188	6833.5101
-187	6929.4262
-186	7049.2547
-185	6722.9805
-184	7012.4408
-183	6922.1347
-182	6835.2311
-181	6812.9253
-180	6670.3092
-179	6924.6044
-178	7019.1184
-177	7008.0268
-176	7139.999
-175	7158.1131
-174	7003.3431
-173	6818.0549
-172	6547.6847
-171	6625.9713
-170	6436.4624
-169	6752.3803
-168	6790.0709
-167	6838.2939
-166	6668.4799
-165	6717.1291
-164	6922.3751
-163	6879.3277
-162	7098.75
-161	6786.2467
-160	7006.489
-159	6973.821
-158	7107.5305
-157	7044.2628
-156	7391.1477
-155	7104.535
-154	7228.386
-153	6963.5974
-152	7259.299
-151	7140.3982
-150	6963.3082
-149	7050.6523
-148	6964.5578
-147	6960.7424
-146	6747.2685
-145	7076.7092
-144	7228.4214
-143	7254.471
-142	7172.0232
-141	7004.6587
-140	7294.4676
-139	7068.8075
-138	7153.5395
-137	7042.5279
-136	7054.8609
-135	7242.0999
-134	7676.9206
-133	7099.8699
-132	7538.0293
-131	7330.8549
-130	7526.0265
-129	7621.457
-128	7459.6924
-127	7462.4667
-126	7679.7224
-125	7599.624
-124	7938.581
-123	7819.0487
-122	7809.074
-121	8016.4248
-120	7534.747
-119	7504.7948
-118	7573.8961
-117	7438.8352
-116	7293.1545
-115	7002.9115
-114	7221.4659
-113	7399.2094
-112	7361.0631
-111	7453.0707
-110	7550.6461
-109	7306.072
-108	7240.7586
-107	7470.0757
-106	7148.9297
-105	7087.3759
-104	7195.6156
-103	7274.2351
-102	7764.2361
-101	7942.707
-100	7719.5932
-99	8231.9987
-98	8199.9961
-97	7857.2707
-96	7920.9848
-95	7747.7414
-94	7743.6297
-93	7831.589
-92	7630.8984
-91	7818.6694
-90	8062.2875
-89	7781.9186
-88	8027.5381
-87	8025.3717
-86	7875.8317
-85	7586.4693
-84	7625.5326
-83	7530.0464
-82	7498.9452
-81	7629.3755
-80	7743.112
-79	7965.1286
-78	8105.0489
-77	7859.3757
-76	7998.7711
-75	7873.6737
-74	7787.1857
-73	7657.7858
-72	7977.6718
-71	7787.89
-70	8155.5998
-69	8534.9241
-68	8779.6851
-67	8808.1049
-66	9249.9235
-65	9446.5953
-64	9271.6431
-63	9585.5618
-62	9400.5378
-61	9252.4276
-60	9245.5644
-59	9294.107
-58	9145.5509
-57	8957.2882
-56	8483.3816
-55	8632.0651
-54	8352.1333
-53	8221.4496
-52	8120.6291
-51	7939.98
-50	8042.5241
-49	7859.7373
-48	8197.713
-47	7913.7264
-46	8151.337
-45	8320.4861
-44	8299.9707
-43	8282.0913
-42	8584.0934
-41	7921.4172
-40	8515.5275
-39	8826.0553
-38	8849.3363
-37	9236.9971
-36	9746.4962
-35	9904.3429
-34	10560.5196
-33	10952.4574
-32	10935.1126
-31	11042.8938
-30	10984.0383
-29	10637.7595
-28	11121.9122
-27	10131.3712
-26	9015.0814
-25	8054.6108
-24	8380.9743
-23	8052.6797
-22	8199.536
-21	8694.0185
-20	8314.7992
-19	8577.8211
-18	9270.9796
-17	9161.8041
-16	9341.3368
-15	9751.5664
-14	10089.8188
-13	10856.51
-12	11981.6027
-11	12891.1097
-10	13911.3291
-9	14878.915
-8	16728.0717
-7	18903.0593
-6	22097.2712
-5	26542.5228
-4	32179.737
-3	40800.3901
-2	50570.7463
-1	58086.2162
0	535978.7356
1	58086.2162
2	50570.7463
3	40800.3901
4	32179.737
5	26542.5228
6	22097.2712
7	18903.0593
8	16728.0717
9	14878.915
10	13911.3291
11	12891.1097
12	11981.6027
13	10856.51
14	10089.8188
15	9751.5664
16	9341.3368
17	9161.8041
18	9270.9796
19	8577.8211
20	8314.7992
21	8694.0185
22	8199.536
23	8052.6797
24	8380.9743
25	8054.6108
26	9015.0814
27	10131.3712
28	11121.9122
29	10637.7595
30	10984.0383
31	11042.8938
32	10935.1126
33	10952.4574
34	10560.5196
35	9904.3429
36	9746.4962
37	9236.9971
38	8849.3363
39	8826.0553
40	8515.5275
41	7921.4172
42	8584.0934
43	8282.0913
44	8299.9707
45	8320.4861
46	8151.337
47	7913.7264
48	8197.713
49	7859.7373
50	8042.5241
51	7939.98
52	8120.6291
53	8221.4496
54	8352.1333
55	8632.0651
56	8483.3816
57	8957.2882
58	9145.5509
59	9294.107
60	9245.5644
61	9252.4276
62	9400.5378
63	9585.5618
64	9271.6431
65	9446.5953
66	9249.9235
67	8808.1049
68	8779.6851
69	8534.9241
70	8155.5998
71	7787.89
72	7977.6718
73	7657.7858
74	7787.1857
75	7873.6737
76	7998.7711
77	7859.3757
78	8105.0489
79	7965.1286
80	7743.112
81	7629.3755
82	7498.9452
83	7530.0464
84	7625.5326
85	7586.4693
86	7875.8317
87	8025.3717
88	8027.5381
89	7781.9186
90	8062.2875
91	7818.6694
92	7630.8984
93	7831.589
94	7743.6297
95	7747.7414
96	7920.9848
97	7857.2707
98	8199.9961
99	8231.9987
100	7719.5932
101	7942.707
102	7764.2361
103	7274.2351
104	7195.6156
105	7087.3759
106	7148.9297
107	7470.0757
108	7240.7586
109	7306.072
110	7550.6461
111	7453.0707
112	7361.0631
113	7399.2094
114	7221.4659
115	7002.9115
116	7293.1545
117	7438.8352
118	7573.8961
119	7504.7948
120	7534.747
121	8016.4248
122	7809.074
123	7819.0487
124	7938.581
125	7599.624
126	7679.7224
127	7462.4667
128	7459.6924
129	7621.457
130	7526.0265
131	7330.8549
132	7538.0293
133	7099.8699
134	7676.9206
135	7242.0999
136	7054.8609
137	7042.5279
138	7153.5395
139	7068.8075
140	7294.4676
141	7004.6587
142	7172.0232
143	7254.471
144	7228.4214
145	7076.7092
146	6747.2685
147	6960.7424
148	6964.5578
149	7050.6523
150	6963.3082
151	7140.3982
152	7259.299
153	6963.5974
154	7228.386
155	7104.535
156	7391.1477
157	7044.2628
158	7107.5305
159	6973.821
160	7006.489
161	6786.2467
162	7098.75
163	6879.3277
164	6922.3751
165	6717.1291
166	6668.4799
167	6838.2939
168	6790.0709
169	6752.3803
170	6436.4624
171	6625.9713
172	6547.6847
173	6818.0549
174	7003.3431
175	7158.1131
176	7139.999
177	7008.0268
178	7019.1184
179	6924.6044
180	6670.3092
181	6812.9253
182	6835.2311
183	6922.1347
184	7012.4408
185	6722.9805
186	7049.2547
187	6929.4262
188	6833.5101
189	6679.737
190	6847.3799
191	6666.3623
192	6565.1364
193	6578.6624
194	6652.2759
195	6971.7168
196	6774.7403
197	6536.3064
198	6716.957
199	6990.8445
200	3325.5886
