Position	Value
-200	6248.533
-199	12501.665
-198	12339.6893
-197	12253.9206
-196	12005.4739
-195	12875.8162
-194	12314.3274
-193	12537.4421
-192	12311.4037
-191	12314.4086
-190	12562.5513
-189	12560.3177
-188	13079.3747
-187	13149.0588
-186	12626.5618
-185	12579.0826
-184	12773.5473
-183	12679.7272
-182	12601.5877
-181	12724.3646
-180	12706.989
-179	12676.2978
-178	12298.0154
-177	12881.0191
-176	12641.8726
-175	12285.6192
-174	12379.7963
-173	12235.7143
-172	12318.5115
-171	12539.6173
-170	12064.2307
-169	12575.6864
-168	12115.3869
-167	12530.1386
-166	12919.5568
-165	12755.1739
-164	12966.8464
-163	12724.4723
-162	12729.1116
-161	12594.978
-160	13044.3093
-159	12683.0829
-158	12622.1538
-157	13307.8966
-156	12934.9286
-155	13301.6878
-154	13225.3593
-153	13040.1248
-152	13536.6335
-151	13416.6369
-150	13119.6654
-149	13151.7725
-148	13106.6543
-147	12874.0639
-146	12868.8972
-145	13338.1813
-144	13320.2779
-143	13174.743
-142	12883.4543
-141	13391.3605
-140	13003.3002
-139	13182.0435
-138	13376.6719
-137	13606.8176
-136	13108.4488
-135	13272.3382
-134	13053.4017
-133	13450.6117
-132	13599.2688
-131	13509.5176
-130	13282.7432
-129	13443.5657
-128	13346.6147
-127	13637.9855
-126	13888.4715
-125	13740.8677
-124	13779.5732
-123	13549.3719
-122	14193.2929
-121	13798.8594
-120	13527.1132
-119	13713.1071
-118	13498.7324
-117	13285.7992
-116	13384.0014
-115	13025.2929
-114	13143.2038
-113	12820.882
-112	13039.0266
-111	13229.4139
-110	12987.9534
-109	12925.3206
-108	12830.266
-107	13504.2889
-106	13336.572
-105	13091.2512
-104	13266.9496
-103	13189.7879
-102	13857.8695
-101	13790.3557
-100	13725.5439
-99	13996.9251
-98	14207.5206
-97	13922.4633
-96	14226.4272
-95	14198.9431
-94	14603.8002
-93	14436.4383
-92	14594.145
-91	14672.2765
-90	14336.1898
-89	14476.2269
-88	14396.4114
-87	14349.1681
-86	14055.4725
-85	13289.6941
-84	13719.1589
-83	12987.3197
-82	12924.5774
-81	13551.3307
-80	13152.3997
-79	13437.4511
-78	13328.0487
-77	13588.0859
-76	13711.2658
-75	13536.9602
-74	13417.492
-73	13704.5848
-72	13917.6609
-71	13913.2233
-70	14188.8937
-69	14667.5214
-68	14607.0311
-67	14862.8813
-66	15212.305
-65	15670.4934
-64	16192.9721
-63	16403.1619
-62	16263.2635
-61	16225.6322
-60	15933.8555
-59	16122.5546
-58	16237.3505
-57	15550.5525
-56	14815.9761
-55	14731.6524
-54	14070.84
-53	13251.5469
-52	13404.5629
-51	13296.1632
-50	13200.1144
-49	13294.4207
-48	13379.6403
-47	13459.18
-46	13131.6945
-45	13297.0635
-44	13769.2196
-43	13566.7797
-42	14096.5889
-41	14017.0864
-40	14374.0841
-39	14499.8886
-38	14795.5546
-37	14865.1043
-36	15254.3004
-35	16260.4221
-34	16109.6269
-33	16957.6253
-32	17349.8924
-31	17305.5712
-30	18869.4188
-29	18397.3411
-28	18556.2997
-27	16430.0231
-26	14857.5989
-25	14805.6711
-24	14766.6887
-23	14573.3523
-22	15119.8375
-21	15405.9152
-20	15664.6856
-19	16167.9633
-18	16281.0428
-17	16747.4916
-16	17545.1648
-15	18190.219
-14	18699.2937
-13	19914.3162
-12	22322.0683
-11	23737.027
-10	25528.9076
-9	27523.6547
-8	30040.9079
-7	33940.627
-6	37635.5984
-5	43792.7422
-4	47662.0894
-3	53405.5005
-2	58598.5347
-1	59323.1739
0	516339.9588
1	59323.1739
2	58598.5347
3	53405.5005
4	47662.0894
5	43792.7422
6	37635.5984
7	33940.627
8	30040.9079
9	27523.6547
10	25528.9076
11	23737.027
12	22322.0683
13	19914.3162
14	18699.2937
15	18190.219
16	17545.1648
17	16747.4916
18	16281.0428
19	16167.9633
20	15664.6856
21	15405.9152
22	15119.8375
23	14573.3523
24	14766.6887
25	14805.6711
26	14857.5989
27	16430.0231
28	18556.2997
29	18397.3411
30	18869.4188
31	17305.5712
32	17349.8924
33	16957.6253
34	16109.6269
35	16260.4221
36	15254.3004
37	14865.1043
38	14795.5546
39	14499.8886
40	14374.0841
41	14017.0864
42	14096.5889
43	13566.7797
44	13769.2196
45	13297.0635
46	13131.6945
47	13459.18
48	13379.6403
49	13294.4207
50	13200.1144
51	13296.1632
52	13404.5629
53	13251.5469
54	14070.84
55	14731.6524
56	14815.9761
57	15550.5525
58	16237.3505
59	16122.5546
60	15933.8555
61	16225.6322
62	16263.2635
63	16403.1619
64	16192.9721
65	15670.4934
66	15212.305
67	14862.8813
68	14607.0311
69	14667.5214
70	14188.8937
71	13913.2233
72	13917.6609
73	13704.5848
74	13417.492
75	13536.9602
76	13711.2658
77	13588.0859
78	13328.0487
79	13437.4511
80	13152.3997
81	13551.3307
82	12924.5774
83	12987.3197
84	13719.1589
85	13289.6941
86	14055.4725
87	14349.1681
88	14396.4114
89	14476.2269
90	14336.1898
91	14672.2765
92	14594.145
93	14436.4383
94	14603.8002
95	14198.9431
96	14226.4272
97	13922.4633
98	14207.5206
99	13996.9251
100	13725.5439
101	13790.3557
102	13857.8695
103	13189.7879
104	13266.9496
105	13091.2512
106	13336.572
107	13504.2889
108	12830.266
109	12925.3206
110	12987.9534
111	13229.4139
112	13039.0266
113	12820.882
114	13143.2038
115	13025.2929
116	13384.0014
117	13285.7992
118	13498.7324
119	13713.1071
120	13527.1132
121	13798.8594
122	14193.2929
123	13549.3719
124	13779.5732
125	13740.8677
126	13888.4715
127	13637.9855
128	13346.6147
129	13443.5657
130	13282.7432
131	13509.5176
132	13599.2688
133	13450.6117
134	13053.4017
135	13272.3382
136	13108.4488
137	13606.8176
138	13376.6719
139	13182.0435
140	13003.3002
141	13391.3605
142	12883.4543
143	13174.743
144	13320.2779
145	13338.1813
146	12868.8972
147	12874.0639
148	13106.6543
149	13151.7725
150	13119.6654
151	13416.6369
152	13536.6335
153	13040.1248
154	13225.3593
155	13301.6878
156	12934.9286
157	13307.8966
158	12622.1538
159	12683.0829
160	13044.3093
161	12594.978
162	12729.1116
163	12724.4723
164	12966.8464
165	12755.1739
166	12919.5568
167	12530.1386
168	12115.3869
169	12575.6864
170	12064.2307
171	12539.6173
172	12318.5115
173	12235.7143
174	12379.7963
175	12285.6192
176	12641.8726
177	12881.0191
178	12298.0154
179	12676.2978
180	12706.989
181	12724.3646
182	12601.5877
183	12679.7272
184	12773.5473
185	12579.0826
186	12626.5618
187	13149.0588
188	13079.3747
189	12560.3177
190	12562.5513
191	12314.4086
192	12311.4037
193	12537.4421
194	12314.3274
195	12875.8162
196	12005.4739
197	12253.9206
198	12339.6893
199	12501.665
200	6248.533
