Position	Value
-200	0.0
-199	0.0
-198	0.0
-197	0.0
-196	0.0114
-195	0.0005
-194	0.0005
-193	0.0012
-192	0.0
-191	0.0
-190	0.1111
-189	0.0007
-188	0.0
-187	0.0007
-186	0.0025
-185	0.1118
-184	0.0
-183	0.0
-182	0.0152
-181	0.0294
-180	0.0303
-179	0.0114
-178	0.0
-177	0.0
-176	0.0
-175	0.0049
-174	0.0
-173	1.0301
-172	0.0
-171	0.0
-170	0.0007
-169	0.0
-168	0.0
-167	0.0
-166	0.0015
-165	0.0015
-164	0.0
-163	0.0
-162	0.0027
-161	0.0
-160	0.1429
-159	0.0
-158	0.0294
-157	0.125
-156	0.0
-155	0.0
-154	0.0
-153	0.0069
-152	0.0
-151	0.0
-150	0.0139
-149	0.0
-148	0.0469
-147	0.0069
-146	0.0
-145	0.0001
-144	0.0
-143	0.0005
-142	0.0
-141	0.0
-140	0.0114
-139	0.0
-138	0.0005
-137	0.001
-136	0.0007
-135	0.0
-134	0.0007
-133	0.0
-132	0.0
-131	0.0
-130	0.0
-129	0.0
-128	0.0009
-127	0.0
-126	0.0044
-125	0.0
-124	1.0
-123	0.0294
-122	0.1111
-121	0.0
-120	0.0
-119	0.0009
-118	0.0017
-117	0.0294
-116	0.1939
-115	0.0
-114	0.0007
-113	0.0
-112	0.0
-111	0.1121
-110	0.0036
-109	0.1209
-108	0.0
-107	0.0321
-106	0.0049
-105	0.0005
-104	0.1667
-103	0.0
-102	0.0
-101	0.0
-100	0.0
-99	0.0
-98	0.0
-97	0.0
-96	0.0
-95	0.0294
-94	0.0
-93	0.0
-92	0.0
-91	1.0
-90	0.0
-89	0.0833
-88	0.3333
-87	0.0
-86	0.0
-85	0.1111
-84	0.0
-83	0.0
-82	0.0
-81	0.0
-80	0.0
-79	0.1553
-78	0.0076
-77	0.0
-76	0.0
-75	0.0
-74	0.0741
-73	0.5
-72	0.0
-71	0.0
-70	0.0
-69	0.5
-68	0.6118
-67	0.0
-66	0.0009
-65	0.0009
-64	0.0026
-63	0.0009
-62	0.125
-61	0.0
-60	0.0
-59	0.0167
-58	0.0
-57	0.001
-56	0.001
-55	0.0072
-54	0.0
-53	0.0
-52	0.0013
-51	1.0
-50	0.0005
-49	0.0
-48	0.0
-47	0.0
-46	0.1111
-45	0.0
-44	0.0
-43	0.0
-42	0.0
-41	0.0
-40	0.0
-39	0.0
-38	0.125
-37	2.125
-36	0.3333
-35	0.0
-34	1.0
-33	0.0
-32	0.0277
-31	0.0
-30	0.0
-29	0.0
-28	0.0833
-27	0.0
-26	0.0
-25	0.0
-24	0.0
-23	0.0
-22	0.0455
-21	0.1429
-20	0.0
-19	0.0
-18	0.2222
-17	0.0
-16	0.0
-15	0.0
-14	0.0
-13	0.3095
-12	0.0
-11	0.0
-10	0.0
-9	0.0
-8	0.0
-7	0.0
-6	0.0625
-5	1.0
-4	5.0625
-3	0.0227
-2	5.0007
-1	9.2
0	328.3092
1	9.2
2	5.0007
3	0.0227
4	5.0625
5	1.0
6	0.0625
7	0.0
8	0.0
9	0.0
10	0.0
11	0.0
12	0.0
13	0.3095
14	0.0
15	0.0
16	0.0
17	0.0
18	0.2222
19	0.0
20	0.0
21	0.1429
22	0.0455
23	0.0
24	0.0
25	0.0
26	0.0
27	0.0
28	0.0833
29	0.0
30	0.0
31	0.0
32	0.0277
33	0.0
34	1.0
35	0.0
36	0.3333
37	2.125
38	0.125
39	0.0
40	0.0
41	0.0
42	0.0
43	0.0
44	0.0
45	0.0
46	0.1111
47	0.0
48	0.0
49	0.0
50	0.0005
51	1.0
52	0.0013
53	0.0
54	0.0
55	0.0072
56	0.001
57	0.001
58	0.0
59	0.0167
60	0.0
61	0.0
62	0.125
63	0.0009
64	0.0026
65	0.0009
66	0.0009
67	0.0
68	0.6118
69	0.5
70	0.0
71	0.0
72	0.0
73	0.5
74	0.0741
75	0.0
76	0.0
77	0.0
78	0.0076
79	0.1553
80	0.0
81	0.0
82	0.0
83	0.0
84	0.0
85	0.1111
86	0.0
87	0.0
88	0.3333
89	0.0833
90	0.0
91	1.0
92	0.0
93	0.0
94	0.0
95	0.0294
96	0.0
97	0.0
98	0.0
99	0.0
100	0.0
101	0.0
102	0.0
103	0.0
104	0.1667
105	0.0005
106	0.0049
107	0.0321
108	0.0
109	0.1209
110	0.0036
111	0.1121
112	0.0
113	0.0
114	0.0007
115	0.0
116	0.1939
117	0.0294
118	0.0017
119	0.0009
120	0.0
121	0.0
122	0.1111
123	0.0294
124	1.0
125	0.0
126	0.0044
127	0.0
128	0.0009
129	0.0
130	0.0
131	0.0
132	0.0
133	0.0
134	0.0007
135	0.0
136	0.0007
137	0.001
138	0.0005
139	0.0
140	0.0114
141	0.0
142	0.0
143	0.0005
144	0.0
145	0.0001
146	0.0
147	0.0069
148	0.0469
149	0.0
150	0.0139
151	0.0
152	0.0
153	0.0069
154	0.0
155	0.0
156	0.0
157	0.125
158	0.0294
159	0.0
160	0.1429
161	0.0
162	0.0027
163	0.0
164	0.0
165	0.0015
166	0.0015
167	0.0
168	0.0
169	0.0
170	0.0007
171	0.0
172	0.0
173	1.0301
174	0.0
175	0.0049
176	0.0
177	0.0
178	0.0
179	0.0114
180	0.0303
181	0.0294
182	0.0152
183	0.0
184	0.0
185	0.1118
186	0.0025
187	0.0007
188	0.0
189	0.0007
190	0.1111
191	0.0
192	0.0
193	0.0012
194	0.0005
195	0.0005
196	0.0114
197	0.0
198	0.0
199	0.0
200	0.0
