Position	Value
-200	37107.5594
-199	18194.9356
-198	18472.1211
-197	18380.9744
-196	18353.9231
-195	18686.0623
-194	18540.867
-193	18879.4049
-192	18497.819
-191	18593.4314
-190	18973.9882
-189	18360.5804
-188	18883.297
-187	19038.03
-186	18642.4885
-185	18791.8786
-184	18837.4295
-183	18944.0554
-182	18745.2497
-181	19401.4146
-180	19043.2106
-179	18178.5636
-178	18906.3017
-177	19119.7652
-176	19002.193
-175	18998.0201
-174	18964.5482
-173	19184.063
-172	19749.3641
-171	19479.1416
-170	19100.7033
-169	19615.3623
-168	19607.9297
-167	19685.1003
-166	19650.1334
-165	20459.349
-164	19424.6309
-163	19699.7572
-162	19919.893
-161	19251.5553
-160	19664.2781
-159	19950.2348
-158	19634.1532
-157	19731.7155
-156	19792.1107
-155	19577.2302
-154	19664.2326
-153	19644.996
-152	20223.3312
-151	19502.8897
-150	19652.8063
-149	19617.0354
-148	19087.9975
-147	19690.3124
-146	19458.8845
-145	19850.6805
-144	19330.5283
-143	19846.5647
-142	20041.1926
-141	19331.132
-140	19942.4231
-139	20140.1879
-138	20185.3627
-137	20341.482
-136	20810.1846
-135	20956.7161
-134	20473.5156
-133	20758.6628
-132	20932.3912
-131	21094.4839
-130	21295.69
-129	21942.2239
-128	21379.6298
-127	21459.5417
-126	21890.7789
-125	21626.6447
-124	21216.9277
-123	21749.6596
-122	21390.9721
-121	21041.2073
-120	21571.1548
-119	20871.4547
-118	20954.0641
-117	20781.1401
-116	20416.2791
-115	20524.6731
-114	21091.6564
-113	21231.783
-112	20700.2812
-111	21014.9855
-110	21357.998
-109	20949.7986
-108	21510.0996
-107	21691.6852
-106	21515.5891
-105	22194.8403
-104	21672.9222
-103	21439.1823
-102	22655.0968
-101	22483.9037
-100	22739.419
-99	23232.8424
-98	23089.3262
-97	22915.7636
-96	23461.2621
-95	23184.3971
-94	24094.3166
-93	23588.8769
-92	23177.923
-91	23451.1675
-90	22567.0943
-89	22451.6843
-88	22669.5632
-87	22061.6539
-86	22397.1408
-85	21189.2644
-84	22349.7123
-83	21411.5792
-82	20836.0853
-81	21973.4581
-80	21204.7704
-79	21793.638
-78	22231.1497
-77	22298.7157
-76	22202.326
-75	22783.1027
-74	22588.5869
-73	23153.757
-72	23487.4842
-71	23149.81
-70	24768.5537
-69	25031.6495
-68	25170.8435
-67	25833.8977
-66	26286.3841
-65	26415.6709
-64	26332.8211
-63	26746.1441
-62	27020.7741
-61	26362.4588
-60	25530.5614
-59	25677.7099
-58	25811.3489
-57	24280.5426
-56	23643.6607
-55	24045.903
-54	23200.2556
-53	23356.5868
-52	23117.0955
-51	23189.6304
-50	22558.9341
-49	22702.2469
-48	23543.297
-47	23072.6148
-46	22829.6559
-45	22971.624
-44	23113.4268
-43	23867.6303
-42	24387.4724
-41	24471.5247
-40	24764.6388
-39	25565.3027
-38	26522.0416
-37	26941.7648
-36	28004.5287
-35	28616.5814
-34	29814.3144
-33	30712.0971
-32	30305.681
-31	30770.8341
-30	31995.5567
-29	30815.8317
-28	29083.1035
-27	26549.2025
-26	25564.7111
-25	24473.5496
-24	25322.4283
-23	24491.6358
-22	24661.4096
-21	26065.8652
-20	25986.2518
-19	26029.405
-18	26711.2647
-17	26920.936
-16	26529.8516
-15	26999.9598
-14	27809.9239
-13	28298.2055
-12	30025.3998
-11	30324.7674
-10	30871.3794
-9	32488.9937
-8	32868.2199
-7	34469.3243
-6	35268.6284
-5	37742.5638
-4	42559.9174
-3	44282.9522
-2	39023.3621
-1	38799.4297
0	268882.7568
1	38799.4297
2	39023.3621
3	44282.9522
4	42559.9174
5	37742.5638
6	35268.6284
7	34469.3243
8	32868.2199
9	32488.9937
10	30871.3794
11	30324.7674
12	30025.3998
13	28298.2055
14	27809.9239
15	26999.9598
16	26529.8516
17	26920.936
18	26711.2647
19	26029.405
20	25986.2518
21	26065.8652
22	24661.4096
23	24491.6358
24	25322.4283
25	24473.5496
26	25564.7111
27	26549.2025
28	29083.1035
29	30815.8317
30	31995.5567
31	30770.8341
32	30305.681
33	30712.0971
34	29814.3144
35	28616.5814
36	28004.5287
37	26941.7648
38	26522.0416
39	25565.3027
40	24764.6388
41	24471.5247
42	24387.4724
43	23867.6303
44	23113.4268
45	22971.624
46	22829.6559
47	23072.6148
48	23543.297
49	22702.2469
50	22558.9341
51	23189.6304
52	23117.0955
53	23356.5868
54	23200.2556
55	24045.903
56	23643.6607
57	24280.5426
58	25811.3489
59	25677.7099
60	25530.5614
61	26362.4588
62	27020.7741
63	26746.1441
64	26332.8211
65	26415.6709
66	26286.3841
67	25833.8977
68	25170.8435
69	25031.6495
70	24768.5537
71	23149.81
72	23487.4842
73	23153.757
74	22588.5869
75	22783.1027
76	22202.326
77	22298.7157
78	22231.1497
79	21793.638
80	21204.7704
81	21973.4581
82	20836.0853
83	21411.5792
84	22349.7123
85	21189.2644
86	22397.1408
87	22061.6539
88	22669.5632
89	22451.6843
90	22567.0943
91	23451.1675
92	23177.923
93	23588.8769
94	24094.3166
95	23184.3971
96	23461.2621
97	22915.7636
98	23089.3262
99	23232.8424
100	22739.419
101	22483.9037
102	22655.0968
103	21439.1823
104	21672.9222
105	22194.8403
106	21515.5891
107	21691.6852
108	21510.0996
109	20949.7986
110	21357.998
111	21014.9855
112	20700.2812
113	21231.783
114	21091.6564
115	20524.6731
116	20416.2791
117	20781.1401
118	20954.0641
119	20871.4547
120	21571.1548
121	21041.2073
122	21390.9721
123	21749.6596
124	21216.9277
125	21626.6447
126	21890.7789
127	21459.5417
128	21379.6298
129	21942.2239
130	21295.69
131	21094.4839
132	20932.3912
133	20758.6628
134	20473.5156
135	20956.7161
136	20810.1846
137	20341.482
138	20185.3627
139	20140.1879
140	19942.4231
141	19331.132
142	20041.1926
143	19846.5647
144	19330.5283
145	19850.6805
146	19458.8845
147	19690.3124
148	19087.9975
149	19617.0354
150	19652.8063
151	19502.8897
152	20223.3312
153	19644.996
154	19664.2326
155	19577.2302
156	19792.1107
157	19731.7155
158	19634.1532
159	19950.2348
160	19664.2781
161	19251.5553
162	19919.893
163	19699.7572
164	19424.6309
165	20459.349
166	19650.1334
167	19685.1003
168	19607.9297
169	19615.3623
170	19100.7033
171	19479.1416
172	19749.3641
173	19184.063
174	18964.5482
175	18998.0201
176	19002.193
177	19119.7652
178	18906.3017
179	18178.5636
180	19043.2106
181	19401.4146
182	18745.2497
183	18944.0554
184	18837.4295
185	18791.8786
186	18642.4885
187	19038.03
188	18883.297
189	18360.5804
190	18973.9882
191	18593.4314
192	18497.819
193	18879.4049
194	18540.867
195	18686.0623
196	18353.9231
197	18380.9744
198	18472.1211
199	18194.9356
200	37107.5594
