Position	Value
-200	16.0289
-199	28.0864
-198	40.7032
-197	37.3268
-196	57.0364
-195	37.9904
-194	38.675
-193	22.6444
-192	37.1462
-191	32.9506
-190	17.4636
-189	41.9236
-188	42.0169
-187	33.4854
-186	45.1334
-185	36.9519
-184	28.7744
-183	42.0092
-182	13.9245
-181	26.6313
-180	23.2168
-179	39.5781
-178	28.3698
-177	25.8548
-176	42.4442
-175	14.3441
-174	37.3099
-173	39.8387
-172	45.7773
-171	33.6549
-170	32.2337
-169	44.3988
-168	29.1122
-167	42.9417
-166	32.6264
-165	44.4134
-164	40.3263
-163	61.3963
-162	38.8998
-161	28.6341
-160	51.4494
-159	19.0491
-158	30.8984
-157	40.7803
-156	66.6708
-155	28.4682
-154	41.9492
-153	32.5516
-152	46.6063
-151	39.9538
-150	31.1531
-149	35.2401
-148	28.0353
-147	31.6304
-146	44.448
-145	35.7537
-144	62.0231
-143	31.1309
-142	29.0827
-141	37.4237
-140	64.1653
-139	47.6224
-138	46.5923
-137	46.4301
-136	58.6238
-135	67.1608
-134	49.1557
-133	42.9086
-132	63.6511
-131	57.2528
-130	55.1539
-129	67.1431
-128	60.7808
-127	49.8906
-126	34.7707
-125	31.7784
-124	19.4797
-123	28.3464
-122	29.1041
-121	26.3842
-120	41.6011
-119	38.5204
-118	36.4792
-117	25.2322
-116	19.951
-115	35.0201
-114	45.3026
-113	24.3362
-112	41.0667
-111	52.9099
-110	21.3148
-109	40.5569
-108	45.2125
-107	31.1131
-106	48.1387
-105	38.7103
-104	30.4047
-103	42.7501
-102	54.2841
-101	68.8042
-100	69.2391
-99	71.4898
-98	58.966
-97	65.2231
-96	34.9439
-95	69.811
-94	36.0116
-93	43.5582
-92	49.458
-91	37.7909
-90	33.9997
-89	28.0336
-88	59.7067
-87	34.6507
-86	47.5302
-85	42.7482
-84	39.6928
-83	31.328
-82	33.3526
-81	50.0115
-80	28.4995
-79	44.5688
-78	43.9281
-77	28.2501
-76	43.0203
-75	29.9994
-74	71.0734
-73	52.6448
-72	62.0583
-71	77.0534
-70	68.0321
-69	73.6086
-68	73.8813
-67	52.6483
-66	64.5823
-65	88.8575
-64	57.2293
-63	59.7626
-62	53.5999
-61	49.3518
-60	39.5408
-59	46.7038
-58	78.1684
-57	42.4222
-56	65.3618
-55	55.3746
-54	48.2962
-53	36.1575
-52	47.3999
-51	60.671
-50	44.2255
-49	60.8887
-48	52.6363
-47	80.1953
-46	40.8208
-45	40.5287
-44	50.0152
-43	79.8223
-42	70.0488
-41	53.2653
-40	70.0833
-39	69.4576
-38	64.6539
-37	73.1258
-36	88.7293
-35	129.4934
-34	139.0556
-33	106.6321
-32	91.4628
-31	113.1532
-30	115.379
-29	131.3875
-28	89.9211
-27	101.3971
-26	68.8804
-25	80.1131
-24	87.099
-23	78.2607
-22	89.081
-21	91.6434
-20	88.9866
-19	89.4585
-18	115.4327
-17	119.0449
-16	111.6101
-15	115.0023
-14	120.9738
-13	165.6037
-12	175.8788
-11	270.2744
-10	195.7848
-9	250.029
-8	253.7114
-7	276.2586
-6	322.8246
-5	450.4275
-4	595.365
-3	723.3266
-2	782.2943
-1	1128.363
0	12773.3015
1	1128.363
2	782.2943
3	723.3266
4	595.365
5	450.4275
6	322.8246
7	276.2586
8	253.7114
9	250.029
10	195.7848
11	270.2744
12	175.8788
13	165.6037
14	120.9738
15	115.0023
16	111.6101
17	119.0449
18	115.4327
19	89.4585
20	88.9866
21	91.6434
22	89.081
23	78.2607
24	87.099
25	80.1131
26	68.8804
27	101.3971
28	89.9211
29	131.3875
30	115.379
31	113.1532
32	91.4628
33	106.6321
34	139.0556
35	129.4934
36	88.7293
37	73.1258
38	64.6539
39	69.4576
40	70.0833
41	53.2653
42	70.0488
43	79.8223
44	50.0152
45	40.5287
46	40.8208
47	80.1953
48	52.6363
49	60.8887
50	44.2255
51	60.671
52	47.3999
53	36.1575
54	48.2962
55	55.3746
56	65.3618
57	42.4222
58	78.1684
59	46.7038
60	39.5408
61	49.3518
62	53.5999
63	59.7626
64	57.2293
65	88.8575
66	64.5823
67	52.6483
68	73.8813
69	73.6086
70	68.0321
71	77.0534
72	62.0583
73	52.6448
74	71.0734
75	29.9994
76	43.0203
77	28.2501
78	43.9281
79	44.5688
80	28.4995
81	50.0115
82	33.3526
83	31.328
84	39.6928
85	42.7482
86	47.5302
87	34.6507
88	59.7067
89	28.0336
90	33.9997
91	37.7909
92	49.458
93	43.5582
94	36.0116
95	69.811
96	34.9439
97	65.2231
98	58.966
99	71.4898
100	69.2391
101	68.8042
102	54.2841
103	42.7501
104	30.4047
105	38.7103
106	48.1387
107	31.1131
108	45.2125
109	40.5569
110	21.3148
111	52.9099
112	41.0667
113	24.3362
114	45.3026
115	35.0201
116	19.951
117	25.2322
118	36.4792
119	38.5204
120	41.6011
121	26.3842
122	29.1041
123	28.3464
124	19.4797
125	31.7784
126	34.7707
127	49.8906
128	60.7808
129	67.1431
130	55.1539
131	57.2528
132	63.6511
133	42.9086
134	49.1557
135	67.1608
136	58.6238
137	46.4301
138	46.5923
139	47.6224
140	64.1653
141	37.4237
142	29.0827
143	31.1309
144	62.0231
145	35.7537
146	44.448
147	31.6304
148	28.0353
149	35.2401
150	31.1531
151	39.9538
152	46.6063
153	32.5516
154	41.9492
155	28.4682
156	66.6708
157	40.7803
158	30.8984
159	19.0491
160	51.4494
161	28.6341
162	38.8998
163	61.3963
164	40.3263
165	44.4134
166	32.6264
167	42.9417
168	29.1122
169	44.3988
170	32.2337
171	33.6549
172	45.7773
173	39.8387
174	37.3099
175	14.3441
176	42.4442
177	25.8548
178	28.3698
179	39.5781
180	23.2168
181	26.6313
182	13.9245
183	42.0092
184	28.7744
185	36.9519
186	45.1334
187	33.4854
188	42.0169
189	41.9236
190	17.4636
191	32.9506
192	37.1462
193	22.6444
194	38.675
195	37.9904
196	57.0364
197	37.3268
198	40.7032
199	28.0864
200	16.0289
