Position	Value
-200	54151.7185
-199	110795.5837
-198	110903.0319
-197	110093.2977
-196	110953.0899
-195	112370.5228
-194	113456.425
-193	111652.169
-192	113717.6473
-191	112089.8468
-190	112184.1082
-189	114342.8592
-188	111620.1331
-187	113125.1034
-186	114689.4631
-185	114286.1286
-184	112729.9483
-183	113990.7048
-182	113840.0632
-181	113473.9649
-180	113306.793
-179	111720.7571
-178	111618.832
-177	113545.6983
-176	112434.0826
-175	112086.6954
-174	110969.5999
-173	112826.6139
-172	110973.3441
-171	113782.0658
-170	111310.2975
-169	112882.0596
-168	112984.9631
-167	112878.2676
-166	112257.566
-165	116937.4843
-164	114960.3086
-163	114728.184
-162	117407.0449
-161	116453.4663
-160	117362.3167
-159	118873.7228
-158	117052.2676
-157	118520.3408
-156	120287.8185
-155	117415.9659
-154	118378.2518
-153	118299.3277
-152	117400.6997
-151	116122.96
-150	116974.4143
-149	114962.5234
-148	114790.937
-147	116833.8969
-146	114639.3391
-145	115936.8621
-144	115221.111
-143	114594.576
-142	113060.4534
-141	113756.8649
-140	115946.0518
-139	116015.6101
-138	115954.5077
-137	114555.4502
-136	115099.4639
-135	118337.8823
-134	116164.2662
-133	117386.3183
-132	120031.1779
-131	117681.0954
-130	120206.7166
-129	120752.0123
-128	121829.0796
-127	122429.9517
-126	124458.1682
-125	121699.9061
-124	122640.4609
-123	123669.9359
-122	123528.0297
-121	121519.6599
-120	121744.2335
-119	120202.036
-118	119918.3216
-117	119813.239
-116	117387.2655
-115	115860.3982
-114	117935.3154
-113	115866.5893
-112	115886.0515
-111	117481.6651
-110	116895.3404
-109	116145.2915
-108	118076.5863
-107	115804.5966
-106	116324.7041
-105	117843.1981
-104	119059.2717
-103	119311.1437
-102	123691.3574
-101	120611.1634
-100	121780.5125
-99	125523.4571
-98	124451.297
-97	126125.6883
-96	128244.5447
-95	129096.056
-94	128346.6339
-93	131569.6315
-92	129307.6855
-91	129793.2896
-90	128963.9458
-89	126762.0843
-88	125368.0431
-87	124954.3846
-86	121733.642
-85	120099.6884
-84	120064.8681
-83	116991.7413
-82	118006.8273
-81	118191.7785
-80	117943.1766
-79	117262.3147
-78	116580.0403
-77	116073.3663
-76	117804.6814
-75	119136.8558
-74	118117.9766
-73	119412.9921
-72	122727.4882
-71	122649.4918
-70	124672.3509
-69	126511.294
-68	127280.3386
-67	128391.2839
-66	134033.8985
-65	133750.0227
-64	135758.9637
-63	139885.6647
-62	142019.1626
-61	141362.6025
-60	140107.7912
-59	139476.2919
-58	134185.724
-57	133182.8304
-56	125755.3296
-55	124170.9969
-54	123749.0115
-53	119970.1447
-52	121874.2828
-51	121938.4973
-50	120990.9295
-49	117940.954
-48	120777.4578
-47	118131.7315
-46	118742.4352
-45	120675.3977
-44	118649.9872
-43	120066.3984
-42	124062.507
-41	121936.5054
-40	123530.5111
-39	127390.5731
-38	126606.0665
-37	128741.1127
-36	134785.7705
-35	137503.2753
-34	142330.4405
-33	150169.5406
-32	154940.9917
-31	158471.8748
-30	166600.3539
-29	158152.4769
-28	147198.4099
-27	136704.0222
-26	126939.7224
-25	125978.7069
-24	127790.814
-23	128043.728
-22	131459.895
-21	138621.1461
-20	138494.5732
-19	140072.5309
-18	144402.1134
-17	144231.5438
-16	145516.7477
-15	150008.3869
-14	152377.5088
-13	158221.0438
-12	171360.6293
-11	178511.1597
-10	178829.197
-9	184538.9919
-8	190547.8491
-7	205857.5931
-6	215642.7946
-5	231078.0096
-4	248170.7151
-3	277822.7857
-2	272445.8232
-1	255979.8653
0	2772162.9054
1	255979.8653
2	272445.8232
3	277822.7857
4	248170.7151
5	231078.0096
6	215642.7946
7	205857.5931
8	190547.8491
9	184538.9919
10	178829.197
11	178511.1597
12	171360.6293
13	158221.0438
14	152377.5088
15	150008.3869
16	145516.7477
17	144231.5438
18	144402.1134
19	140072.5309
20	138494.5732
21	138621.1461
22	131459.895
23	128043.728
24	127790.814
25	125978.7069
26	126939.7224
27	136704.0222
28	147198.4099
29	158152.4769
30	166600.3539
31	158471.8748
32	154940.9917
33	150169.5406
34	142330.4405
35	137503.2753
36	134785.7705
37	128741.1127
38	126606.0665
39	127390.5731
40	123530.5111
41	121936.5054
42	124062.507
43	120066.3984
44	118649.9872
45	120675.3977
46	118742.4352
47	118131.7315
48	120777.4578
49	117940.954
50	120990.9295
51	121938.4973
52	121874.2828
53	119970.1447
54	123749.0115
55	124170.9969
56	125755.3296
57	133182.8304
58	134185.724
59	139476.2919
60	140107.7912
61	141362.6025
62	142019.1626
63	139885.6647
64	135758.9637
65	133750.0227
66	134033.8985
67	128391.2839
68	127280.3386
69	126511.294
70	124672.3509
71	122649.4918
72	122727.4882
73	119412.9921
74	118117.9766
75	119136.8558
76	117804.6814
77	116073.3663
78	116580.0403
79	117262.3147
80	117943.1766
81	118191.7785
82	118006.8273
83	116991.7413
84	120064.8681
85	120099.6884
86	121733.642
87	124954.3846
88	125368.0431
89	126762.0843
90	128963.9458
91	129793.2896
92	129307.6855
93	131569.6315
94	128346.6339
95	129096.056
96	128244.5447
97	126125.6883
98	124451.297
99	125523.4571
100	121780.5125
101	120611.1634
102	123691.3574
103	119311.1437
104	119059.2717
105	117843.1981
106	116324.7041
107	115804.5966
108	118076.5863
109	116145.2915
110	116895.3404
111	117481.6651
112	115886.0515
113	115866.5893
114	117935.3154
115	115860.3982
116	117387.2655
117	119813.239
118	119918.3216
119	120202.036
120	121744.2335
121	121519.6599
122	123528.0297
123	123669.9359
124	122640.4609
125	121699.9061
126	124458.1682
127	122429.9517
128	121829.0796
129	120752.0123
130	120206.7166
131	117681.0954
132	120031.1779
133	117386.3183
134	116164.2662
135	118337.8823
136	115099.4639
137	114555.4502
138	115954.5077
139	116015.6101
140	115946.0518
141	113756.8649
142	113060.4534
143	114594.576
144	115221.111
145	115936.8621
146	114639.3391
147	116833.8969
148	114790.937
149	114962.5234
150	116974.4143
151	116122.96
152	117400.6997
153	118299.3277
154	118378.2518
155	117415.9659
156	120287.8185
157	118520.3408
158	117052.2676
159	118873.7228
160	117362.3167
161	116453.4663
162	117407.0449
163	114728.184
164	114960.3086
165	116937.4843
166	112257.566
167	112878.2676
168	112984.9631
169	112882.0596
170	111310.2975
171	113782.0658
172	110973.3441
173	112826.6139
174	110969.5999
175	112086.6954
176	112434.0826
177	113545.6983
178	111618.832
179	111720.7571
180	113306.793
181	113473.9649
182	113840.0632
183	113990.7048
184	112729.9483
185	114286.1286
186	114689.4631
187	113125.1034
188	111620.1331
189	114342.8592
190	112184.1082
191	112089.8468
192	113717.6473
193	111652.169
194	113456.425
195	112370.5228
196	110953.0899
197	110093.2977
198	110903.0319
199	110795.5837
200	54151.7185
