Position	Value
-200	22690.5306
-199	10851.8636
-198	11112.1435
-197	11206.6662
-196	10874.6004
-195	11115.346
-194	11154.8756
-193	11073.5167
-192	11098.3135
-191	11092.269
-190	11306.8806
-189	11139.9999
-188	11362.9704
-187	11666.185
-186	11382.0898
-185	11179.6564
-184	11612.0807
-183	11408.08
-182	11278.6553
-181	12053.1493
-180	11698.5547
-179	11026.5971
-178	11611.9291
-177	11475.2779
-176	11568.5252
-175	11139.4945
-174	11868.8142
-173	11670.1358
-172	12174.5929
-171	11784.8589
-170	11504.0627
-169	12377.9983
-168	12067.3118
-167	12054.8678
-166	12109.1135
-165	12284.7906
-164	11648.8403
-163	12074.0615
-162	12092.0272
-161	11924.1999
-160	12217.939
-159	12285.421
-158	12278.6547
-157	11887.5594
-156	12613.8491
-155	11886.2976
-154	12284.2004
-153	12458.93
-152	12392.977
-151	12063.3554
-150	12023.8113
-149	12454.4999
-148	11515.0248
-147	11901.377
-146	12060.7213
-145	12208.476
-144	12041.3441
-143	12027.947
-142	12424.6998
-141	11952.3149
-140	12663.1467
-139	12896.3342
-138	12758.0126
-137	12651.8512
-136	13022.6686
-135	12872.1627
-134	13020.1983
-133	12993.9217
-132	12824.1952
-131	13201.9313
-130	13288.6248
-129	13440.1165
-128	13315.6556
-127	13469.4296
-126	13697.8453
-125	13200.0384
-124	12973.3815
-123	13154.3737
-122	13543.3475
-121	13052.2444
-120	13175.7601
-119	13064.3634
-118	12750.4747
-117	12755.2307
-116	12089.1362
-115	12547.1206
-114	12649.724
-113	12872.8764
-112	12470.9458
-111	12839.9992
-110	13294.7649
-109	13157.2855
-108	13536.91
-107	13279.7542
-106	13105.036
-105	13990.8095
-104	13633.8407
-103	13742.3408
-102	14344.0074
-101	14319.4062
-100	14205.1832
-99	14536.9464
-98	14927.5262
-97	14440.4381
-96	15006.7812
-95	14638.2004
-94	15119.7467
-93	14819.7157
-92	14489.8428
-91	14491.6628
-90	14116.187
-89	14277.7955
-88	14065.8933
-87	13659.1295
-86	13928.2774
-85	13086.3692
-84	13574.1736
-83	12534.6885
-82	12798.5184
-81	13466.2625
-80	12720.3875
-79	12987.2421
-78	13718.36
-77	13727.7212
-76	13688.8223
-75	14089.3024
-74	14309.6707
-73	14417.6692
-72	14552.3769
-71	14695.4199
-70	15645.4837
-69	15840.3153
-68	15877.3205
-67	16470.8331
-66	16589.2154
-65	16730.241
-64	17021.446
-63	17383.0647
-62	16832.1628
-61	17059.6212
-60	16271.3035
-59	15972.1017
-58	15919.9776
-57	15007.3821
-56	14936.3825
-55	14890.8502
-54	14403.8426
-53	14432.0084
-52	14675.1994
-51	14276.3986
-50	13732.2013
-49	13960.7197
-48	14571.4353
-47	14284.3533
-46	13872.0539
-45	14148.5229
-44	13945.114
-43	14773.9484
-42	15439.7248
-41	15521.8843
-40	15376.3214
-39	15911.3685
-38	16887.4081
-37	17156.8549
-36	18489.7085
-35	18528.4773
-34	19715.5363
-33	20361.813
-32	20317.8756
-31	20881.0522
-30	21230.9525
-29	19317.8246
-28	18896.9739
-27	16686.3962
-26	16532.7077
-25	16063.8867
-24	15590.1537
-23	15514.4664
-22	15624.8371
-21	16312.8292
-20	15918.3687
-19	16051.9859
-18	16256.5256
-17	16248.2502
-16	16115.7466
-15	16421.7216
-14	16704.8668
-13	17254.8051
-12	18306.6301
-11	18522.8548
-10	18781.7948
-9	19979.6687
-8	20091.5993
-7	21439.5676
-6	21578.17
-5	23662.9077
-4	26506.4806
-3	28623.7227
-2	24022.7832
-1	23282.3029
0	185333.6541
1	23282.3029
2	24022.7832
3	28623.7227
4	26506.4806
5	23662.9077
6	21578.17
7	21439.5676
8	20091.5993
9	19979.6687
10	18781.7948
11	18522.8548
12	18306.6301
13	17254.8051
14	16704.8668
15	16421.7216
16	16115.7466
17	16248.2502
18	16256.5256
19	16051.9859
20	15918.3687
21	16312.8292
22	15624.8371
23	15514.4664
24	15590.1537
25	16063.8867
26	16532.7077
27	16686.3962
28	18896.9739
29	19317.8246
30	21230.9525
31	20881.0522
32	20317.8756
33	20361.813
34	19715.5363
35	18528.4773
36	18489.7085
37	17156.8549
38	16887.4081
39	15911.3685
40	15376.3214
41	15521.8843
42	15439.7248
43	14773.9484
44	13945.114
45	14148.5229
46	13872.0539
47	14284.3533
48	14571.4353
49	13960.7197
50	13732.2013
51	14276.3986
52	14675.1994
53	14432.0084
54	14403.8426
55	14890.8502
56	14936.3825
57	15007.3821
58	15919.9776
59	15972.1017
60	16271.3035
61	17059.6212
62	16832.1628
63	17383.0647
64	17021.446
65	16730.241
66	16589.2154
67	16470.8331
68	15877.3205
69	15840.3153
70	15645.4837
71	14695.4199
72	14552.3769
73	14417.6692
74	14309.6707
75	14089.3024
76	13688.8223
77	13727.7212
78	13718.36
79	12987.2421
80	12720.3875
81	13466.2625
82	12798.5184
83	12534.6885
84	13574.1736
85	13086.3692
86	13928.2774
87	13659.1295
88	14065.8933
89	14277.7955
90	14116.187
91	14491.6628
92	14489.8428
93	14819.7157
94	15119.7467
95	14638.2004
96	15006.7812
97	14440.4381
98	14927.5262
99	14536.9464
100	14205.1832
101	14319.4062
102	14344.0074
103	13742.3408
104	13633.8407
105	13990.8095
106	13105.036
107	13279.7542
108	13536.91
109	13157.2855
110	13294.7649
111	12839.9992
112	12470.9458
113	12872.8764
114	12649.724
115	12547.1206
116	12089.1362
117	12755.2307
118	12750.4747
119	13064.3634
120	13175.7601
121	13052.2444
122	13543.3475
123	13154.3737
124	12973.3815
125	13200.0384
126	13697.8453
127	13469.4296
128	13315.6556
129	13440.1165
130	13288.6248
131	13201.9313
132	12824.1952
133	12993.9217
134	13020.1983
135	12872.1627
136	13022.6686
137	12651.8512
138	12758.0126
139	12896.3342
140	12663.1467
141	11952.3149
142	12424.6998
143	12027.947
144	12041.3441
145	12208.476
146	12060.7213
147	11901.377
148	11515.0248
149	12454.4999
150	12023.8113
151	12063.3554
152	12392.977
153	12458.93
154	12284.2004
155	11886.2976
156	12613.8491
157	11887.5594
158	12278.6547
159	12285.421
160	12217.939
161	11924.1999
162	12092.0272
163	12074.0615
164	11648.8403
165	12284.7906
166	12109.1135
167	12054.8678
168	12067.3118
169	12377.9983
170	11504.0627
171	11784.8589
172	12174.5929
173	11670.1358
174	11868.8142
175	11139.4945
176	11568.5252
177	11475.2779
178	11611.9291
179	11026.5971
180	11698.5547
181	12053.1493
182	11278.6553
183	11408.08
184	11612.0807
185	11179.6564
186	11382.0898
187	11666.185
188	11362.9704
189	11139.9999
190	11306.8806
191	11092.269
192	11098.3135
193	11073.5167
194	11154.8756
195	11115.346
196	10874.6004
197	11206.6662
198	11112.1435
199	10851.8636
200	22690.5306
