Position	Value
-200	15352.3836
-199	30924.0109
-198	31252.6542
-197	31282.8754
-196	31258.3868
-195	31362.5323
-194	31258.7989
-193	31871.4896
-192	31918.1297
-191	31625.5907
-190	31857.2345
-189	32578.2336
-188	32756.9799
-187	32036.8737
-186	32785.998
-185	32713.5967
-184	32755.4081
-183	32693.0012
-182	32221.8719
-181	32390.0858
-180	32255.0344
-179	32742.978
-178	32269.2961
-177	32271.6952
-176	32319.9754
-175	32141.1807
-174	32405.6808
-173	32400.1478
-172	32341.1563
-171	31735.2088
-170	32446.7996
-169	31872.2815
-168	32395.0426
-167	32563.5325
-166	32196.4342
-165	33175.872
-164	32719.2527
-163	32606.2604
-162	32518.9691
-161	32761.4357
-160	32972.5188
-159	33179.4269
-158	32704.7859
-157	33688.9029
-156	33725.1585
-155	33003.8748
-154	33813.458
-153	33375.4901
-152	33698.4571
-151	33659.1632
-150	33589.5322
-149	33212.0772
-148	33397.3557
-147	33295.5017
-146	32819.8225
-145	32664.814
-144	33353.325
-143	33562.5134
-142	33118.611
-141	34055.0529
-140	33848.681
-139	34109.5012
-138	34428.0774
-137	34022.1241
-136	33898.7617
-135	34908.4243
-134	35246.6364
-133	34915.2968
-132	36224.047
-131	36149.898
-130	35627.3558
-129	35856.554
-128	35766.8609
-127	35986.0624
-126	36974.9026
-125	36066.3847
-124	36150.3435
-123	36265.0507
-122	35789.4661
-121	36321.1932
-120	35965.668
-119	35464.949
-118	35411.9171
-117	34750.1371
-116	34421.2041
-115	34194.4587
-114	33563.5551
-113	33902.3214
-112	33626.3604
-111	34552.0863
-110	35143.377
-109	34719.4279
-108	34657.3052
-107	34552.4006
-106	35200.5747
-105	35961.9261
-104	35942.8413
-103	36343.6104
-102	37671.3321
-101	38469.293
-100	38869.8794
-99	38893.1968
-98	39238.921
-97	39721.3345
-96	39772.4568
-95	40169.2971
-94	40046.3783
-93	40638.443
-92	40189.8625
-91	39998.6063
-90	39455.2385
-89	39075.8523
-88	38205.7539
-87	38075.206
-86	37611.3947
-85	37287.819
-84	36617.6263
-83	36182.5221
-82	36254.797
-81	36828.6517
-80	36554.132
-79	36428.5462
-78	36958.6582
-77	36625.4568
-76	38034.5719
-75	37911.781
-74	38153.4496
-73	38720.9677
-72	39765.8219
-71	40286.6208
-70	41295.4246
-69	42452.3678
-68	42277.5816
-67	42784.1229
-66	44773.8078
-65	44601.2149
-64	45968.8927
-63	45807.0033
-62	45994.1162
-61	47277.2127
-60	47431.6206
-59	45921.5149
-58	44582.3439
-57	44020.3446
-56	42642.8576
-55	41785.8738
-54	41348.4599
-53	40814.3353
-52	41112.0137
-51	40419.0523
-50	40642.362
-49	40356.3167
-48	41331.04
-47	41130.8732
-46	41644.086
-45	42578.5364
-44	43198.3661
-43	43805.6748
-42	45131.5229
-41	45431.0012
-40	46486.4301
-39	47443.6289
-38	49104.015
-37	50642.0768
-36	51910.9926
-35	54504.1659
-34	54768.9617
-33	56922.0587
-32	56840.3697
-31	57896.7691
-30	59900.6743
-29	58103.2582
-28	55477.3924
-27	54145.5161
-26	51831.4677
-25	51714.2547
-24	51707.961
-23	51945.8386
-22	52861.0764
-21	53523.8099
-20	54037.2615
-19	55220.2726
-18	57162.9046
-17	57801.0474
-16	59731.3872
-15	61618.9371
-14	63385.0618
-13	67717.6964
-12	73404.5859
-11	76993.4946
-10	81772.5161
-9	90522.4764
-8	96421.5911
-7	106525.0813
-6	117629.7249
-5	134488.2767
-4	142443.7432
-3	162115.8767
-2	178762.075
-1	211874.123
0	655499.6899
1	211874.123
2	178762.075
3	162115.8767
4	142443.7432
5	134488.2767
6	117629.7249
7	106525.0813
8	96421.5911
9	90522.4764
10	81772.5161
11	76993.4946
12	73404.5859
13	67717.6964
14	63385.0618
15	61618.9371
16	59731.3872
17	57801.0474
18	57162.9046
19	55220.2726
20	54037.2615
21	53523.8099
22	52861.0764
23	51945.8386
24	51707.961
25	51714.2547
26	51831.4677
27	54145.5161
28	55477.3924
29	58103.2582
30	59900.6743
31	57896.7691
32	56840.3697
33	56922.0587
34	54768.9617
35	54504.1659
36	51910.9926
37	50642.0768
38	49104.015
39	47443.6289
40	46486.4301
41	45431.0012
42	45131.5229
43	43805.6748
44	43198.3661
45	42578.5364
46	41644.086
47	41130.8732
48	41331.04
49	40356.3167
50	40642.362
51	40419.0523
52	41112.0137
53	40814.3353
54	41348.4599
55	41785.8738
56	42642.8576
57	44020.3446
58	44582.3439
59	45921.5149
60	47431.6206
61	47277.2127
62	45994.1162
63	45807.0033
64	45968.8927
65	44601.2149
66	44773.8078
67	42784.1229
68	42277.5816
69	42452.3678
70	41295.4246
71	40286.6208
72	39765.8219
73	38720.9677
74	38153.4496
75	37911.781
76	38034.5719
77	36625.4568
78	36958.6582
79	36428.5462
80	36554.132
81	36828.6517
82	36254.797
83	36182.5221
84	36617.6263
85	37287.819
86	37611.3947
87	38075.206
88	38205.7539
89	39075.8523
90	39455.2385
91	39998.6063
92	40189.8625
93	40638.443
94	40046.3783
95	40169.2971
96	39772.4568
97	39721.3345
98	39238.921
99	38893.1968
100	38869.8794
101	38469.293
102	37671.3321
103	36343.6104
104	35942.8413
105	35961.9261
106	35200.5747
107	34552.4006
108	34657.3052
109	34719.4279
110	35143.377
111	34552.0863
112	33626.3604
113	33902.3214
114	33563.5551
115	34194.4587
116	34421.2041
117	34750.1371
118	35411.9171
119	35464.949
120	35965.668
121	36321.1932
122	35789.4661
123	36265.0507
124	36150.3435
125	36066.3847
126	36974.9026
127	35986.0624
128	35766.8609
129	35856.554
130	35627.3558
131	36149.898
132	36224.047
133	34915.2968
134	35246.6364
135	34908.4243
136	33898.7617
137	34022.1241
138	34428.0774
139	34109.5012
140	33848.681
141	34055.0529
142	33118.611
143	33562.5134
144	33353.325
145	32664.814
146	32819.8225
147	33295.5017
148	33397.3557
149	33212.0772
150	33589.5322
151	33659.1632
152	33698.4571
153	33375.4901
154	33813.458
155	33003.8748
156	33725.1585
157	33688.9029
158	32704.7859
159	33179.4269
160	32972.5188
161	32761.4357
162	32518.9691
163	32606.2604
164	32719.2527
165	33175.872
166	32196.4342
167	32563.5325
168	32395.0426
169	31872.2815
170	32446.7996
171	31735.2088
172	32341.1563
173	32400.1478
174	32405.6808
175	32141.1807
176	32319.9754
177	32271.6952
178	32269.2961
179	32742.978
180	32255.0344
181	32390.0858
182	32221.8719
183	32693.0012
184	32755.4081
185	32713.5967
186	32785.998
187	32036.8737
188	32756.9799
189	32578.2336
190	31857.2345
191	31625.5907
192	31918.1297
193	31871.4896
194	31258.7989
195	31362.5323
196	31258.3868
197	31282.8754
198	31252.6542
199	30924.0109
200	15352.3836
