Position	Value
-200	4227.2891
-199	8326.862
-198	8538.2077
-197	8662.1324
-196	8513.3684
-195	8561.5618
-194	9090.8086
-193	8788.5712
-192	8812.9207
-191	9257.2634
-190	9194.415
-189	8912.7538
-188	9262.5467
-187	9002.6766
-186	9354.8467
-185	9538.1975
-184	8952.7852
-183	9091.0194
-182	9088.047
-181	9090.2304
-180	8917.4719
-179	9204.4519
-178	8650.1196
-177	8568.5265
-176	8719.1591
-175	8698.7085
-174	9132.0169
-173	8410.9994
-172	8549.1476
-171	8399.3091
-170	8664.6245
-169	8549.792
-168	8360.0326
-167	8800.2082
-166	8810.7137
-165	8988.3975
-164	8815.1929
-163	8879.1776
-162	9112.2367
-161	9136.4618
-160	9147.8191
-159	9369.0407
-158	9335.0782
-157	9720.4959
-156	9340.6492
-155	9295.6543
-154	9523.5465
-153	9545.9687
-152	9187.0962
-151	9036.3767
-150	9206.03
-149	8725.6785
-148	8744.5157
-147	8837.2721
-146	8788.3376
-145	8961.3593
-144	8375.3039
-143	8944.4623
-142	8926.5695
-141	9012.3775
-140	8717.158
-139	8838.0896
-138	8696.3491
-137	9080.7811
-136	8696.6418
-135	9141.8997
-134	9346.0242
-133	9349.3653
-132	9474.4623
-131	9870.6836
-130	9405.0569
-129	9491.844
-128	9831.3652
-127	9921.5279
-126	9850.7786
-125	9797.7906
-124	9975.2168
-123	9937.8023
-122	9600.1682
-121	10097.0706
-120	9917.4929
-119	9486.9929
-118	9206.1345
-117	9335.6752
-116	9328.0409
-115	9078.0031
-114	8922.5857
-113	8850.1914
-112	8957.2724
-111	9434.5784
-110	9011.544
-109	9025.1752
-108	9256.0144
-107	9116.5021
-106	9230.1014
-105	9317.786
-104	8979.3493
-103	9635.8897
-102	9759.307
-101	9986.1858
-100	9870.1588
-99	10503.7085
-98	10168.7178
-97	10107.8266
-96	10324.8906
-95	10611.7572
-94	10821.4073
-93	10943.7044
-92	10760.8773
-91	10375.9056
-90	10747.9556
-89	10452.2542
-88	9938.5636
-87	9985.0769
-86	10119.3914
-85	9742.8604
-84	9646.2956
-83	9894.257
-82	9416.4556
-81	9341.6145
-80	9288.6766
-79	9133.621
-78	9545.2555
-77	9299.2991
-76	9665.1069
-75	9441.1937
-74	9781.3512
-73	9698.2713
-72	9940.1595
-71	10417.068
-70	10239.0482
-69	11038.4853
-68	10981.2843
-67	11330.6911
-66	11626.5063
-65	11182.9824
-64	11692.0925
-63	11879.718
-62	11478.4712
-61	12111.7943
-60	11732.5191
-59	11726.5595
-58	10922.1271
-57	10970.6588
-56	10690.19
-55	10256.8664
-54	10225.0801
-53	9978.7483
-52	9830.8043
-51	9523.5309
-50	9747.8075
-49	9819.7605
-48	9625.3943
-47	9524.9487
-46	9553.0044
-45	10351.8847
-44	10183.3891
-43	10145.4679
-42	10162.4734
-41	10501.1576
-40	10896.2215
-39	11476.148
-38	11756.9653
-37	12133.7536
-36	12097.7053
-35	13057.4321
-34	13427.0212
-33	13365.2418
-32	13774.3572
-31	14005.074
-30	14473.9886
-29	14246.536
-28	13951.459
-27	13195.5535
-26	11950.3256
-25	10965.3785
-24	10712.2799
-23	11074.7777
-22	11038.8842
-21	11140.0008
-20	11217.0808
-19	11118.0458
-18	11319.7062
-17	11297.9182
-16	12054.5289
-15	12237.8605
-14	12663.4764
-13	13177.8961
-12	14546.7236
-11	15338.5337
-10	16358.5488
-9	18731.3338
-8	19821.3681
-7	21792.1952
-6	24188.7152
-5	28362.7647
-4	30991.952
-3	35891.7662
-2	35599.1655
-1	34723.4762
0	342798.561
1	34723.4762
2	35599.1655
3	35891.7662
4	30991.952
5	28362.7647
6	24188.7152
7	21792.1952
8	19821.3681
9	18731.3338
10	16358.5488
11	15338.5337
12	14546.7236
13	13177.8961
14	12663.4764
15	12237.8605
16	12054.5289
17	11297.9182
18	11319.7062
19	11118.0458
20	11217.0808
21	11140.0008
22	11038.8842
23	11074.7777
24	10712.2799
25	10965.3785
26	11950.3256
27	13195.5535
28	13951.459
29	14246.536
30	14473.9886
31	14005.074
32	13774.3572
33	13365.2418
34	13427.0212
35	13057.4321
36	12097.7053
37	12133.7536
38	11756.9653
39	11476.148
40	10896.2215
41	10501.1576
42	10162.4734
43	10145.4679
44	10183.3891
45	10351.8847
46	9553.0044
47	9524.9487
48	9625.3943
49	9819.7605
50	9747.8075
51	9523.5309
52	9830.8043
53	9978.7483
54	10225.0801
55	10256.8664
56	10690.19
57	10970.6588
58	10922.1271
59	11726.5595
60	11732.5191
61	12111.7943
62	11478.4712
63	11879.718
64	11692.0925
65	11182.9824
66	11626.5063
67	11330.6911
68	10981.2843
69	11038.4853
70	10239.0482
71	10417.068
72	9940.1595
73	9698.2713
74	9781.3512
75	9441.1937
76	9665.1069
77	9299.2991
78	9545.2555
79	9133.621
80	9288.6766
81	9341.6145
82	9416.4556
83	9894.257
84	9646.2956
85	9742.8604
86	10119.3914
87	9985.0769
88	9938.5636
89	10452.2542
90	10747.9556
91	10375.9056
92	10760.8773
93	10943.7044
94	10821.4073
95	10611.7572
96	10324.8906
97	10107.8266
98	10168.7178
99	10503.7085
100	9870.1588
101	9986.1858
102	9759.307
103	9635.8897
104	8979.3493
105	9317.786
106	9230.1014
107	9116.5021
108	9256.0144
109	9025.1752
110	9011.544
111	9434.5784
112	8957.2724
113	8850.1914
114	8922.5857
115	9078.0031
116	9328.0409
117	9335.6752
118	9206.1345
119	9486.9929
120	9917.4929
121	10097.0706
122	9600.1682
123	9937.8023
124	9975.2168
125	9797.7906
126	9850.7786
127	9921.5279
128	9831.3652
129	9491.844
130	9405.0569
131	9870.6836
132	9474.4623
133	9349.3653
134	9346.0242
135	9141.8997
136	8696.6418
137	9080.7811
138	8696.3491
139	8838.0896
140	8717.158
141	9012.3775
142	8926.5695
143	8944.4623
144	8375.3039
145	8961.3593
146	8788.3376
147	8837.2721
148	8744.5157
149	8725.6785
150	9206.03
151	9036.3767
152	9187.0962
153	9545.9687
154	9523.5465
155	9295.6543
156	9340.6492
157	9720.4959
158	9335.0782
159	9369.0407
160	9147.8191
161	9136.4618
162	9112.2367
163	8879.1776
164	8815.1929
165	8988.3975
166	8810.7137
167	8800.2082
168	8360.0326
169	8549.792
170	8664.6245
171	8399.3091
172	8549.1476
173	8410.9994
174	9132.0169
175	8698.7085
176	8719.1591
177	8568.5265
178	8650.1196
179	9204.4519
180	8917.4719
181	9090.2304
182	9088.047
183	9091.0194
184	8952.7852
185	9538.1975
186	9354.8467
187	9002.6766
188	9262.5467
189	8912.7538
190	9194.415
191	9257.2634
192	8812.9207
193	8788.5712
194	9090.8086
195	8561.5618
196	8513.3684
197	8662.1324
198	8538.2077
199	8326.862
200	4227.2891
