Position	Value
-200	596.7219
-199	1350.3638
-198	1182.7904
-197	1164.7041
-196	1314.102
-195	1287.2237
-194	1270.1835
-193	1360.9799
-192	1373.3438
-191	1420.1442
-190	1454.3086
-189	1484.9894
-188	1426.2728
-187	1427.7789
-186	1536.7561
-185	1561.8027
-184	1611.4778
-183	1564.1852
-182	1541.219
-181	1568.9935
-180	1543.5818
-179	1584.2824
-178	1634.9786
-177	1504.7035
-176	1555.8727
-175	1532.8563
-174	1548.8336
-173	1511.7052
-172	1680.5888
-171	1509.6676
-170	1556.8196
-169	1564.9884
-168	1557.691
-167	1521.3063
-166	1481.8847
-165	1672.8798
-164	1517.1592
-163	1542.1474
-162	1559.7068
-161	1647.6323
-160	1636.2888
-159	1726.9605
-158	1577.4098
-157	1710.7311
-156	1674.9897
-155	1712.5503
-154	1672.0889
-153	1698.2841
-152	1838.2636
-151	1747.551
-150	1644.4246
-149	1636.4411
-148	1529.2483
-147	1533.0251
-146	1491.2212
-145	1552.52
-144	1641.7719
-143	1682.038
-142	1615.0577
-141	1534.6235
-140	1700.8585
-139	1673.7267
-138	1683.4852
-137	1624.1527
-136	1703.3812
-135	1770.3628
-134	1760.6501
-133	1740.4777
-132	1775.0618
-131	1832.6659
-130	1754.0681
-129	1785.0021
-128	1745.8856
-127	1767.4227
-126	1727.5199
-125	1939.7979
-124	1824.7356
-123	1820.5223
-122	1885.0351
-121	1774.2042
-120	1751.8312
-119	1753.2377
-118	1658.164
-117	1610.4837
-116	1536.6404
-115	1480.6098
-114	1541.1767
-113	1505.4474
-112	1624.7089
-111	1639.073
-110	1586.0558
-109	1635.9642
-108	1665.1033
-107	1726.6996
-106	1691.9883
-105	1685.8502
-104	1845.964
-103	1909.2269
-102	1990.2532
-101	2090.3745
-100	2108.8935
-99	2039.3224
-98	2106.2834
-97	2274.9544
-96	2262.5463
-95	2423.6398
-94	2251.3999
-93	2516.9728
-92	2317.3449
-91	2473.6163
-90	2216.6316
-89	2098.9314
-88	2014.2539
-87	1821.2815
-86	1746.6703
-85	1765.4937
-84	1531.0521
-83	1626.2656
-82	1640.0609
-81	1591.7371
-80	1674.8773
-79	1571.2551
-78	1622.4136
-77	1643.1515
-76	1702.1615
-75	1826.8744
-74	1932.0253
-73	2012.8332
-72	2052.2288
-71	2250.1625
-70	2341.849
-69	2494.9555
-68	2754.7754
-67	2861.837
-66	3052.3653
-65	2996.0657
-64	3116.4866
-63	3044.1516
-62	3094.455
-61	3578.0831
-60	3190.2911
-59	3006.0618
-58	2889.1857
-57	2618.4878
-56	2417.5648
-55	2213.3836
-54	1997.895
-53	1859.5515
-52	1796.0902
-51	1698.9056
-50	1744.5413
-49	1653.8494
-48	1821.329
-47	1662.3723
-46	1706.3149
-45	1981.8113
-44	1860.8149
-43	1966.0761
-42	2230.2408
-41	2343.9828
-40	2449.4481
-39	2750.7275
-38	2963.3259
-37	3189.7102
-36	3585.5199
-35	4060.1923
-34	4273.1373
-33	4605.5082
-32	4689.0887
-31	4475.942
-30	4901.6037
-29	4889.4684
-28	4235.427
-27	3590.047
-26	3053.8345
-25	2839.7561
-24	2580.9011
-23	2485.6074
-22	2587.7642
-21	2364.3908
-20	2317.7095
-19	2385.9931
-18	2251.6233
-17	2387.0366
-16	2453.1077
-15	2464.9623
-14	2485.7788
-13	2781.2875
-12	2881.745
-11	3232.4713
-10	3501.6848
-9	3822.6158
-8	3763.3898
-7	4425.4483
-6	4651.1611
-5	5994.7106
-4	6580.2124
-3	7674.6441
-2	8666.4248
-1	10152.0212
0	61079.4304
1	10152.0212
2	8666.4248
3	7674.6441
4	6580.2124
5	5994.7106
6	4651.1611
7	4425.4483
8	3763.3898
9	3822.6158
10	3501.6848
11	3232.4713
12	2881.745
13	2781.2875
14	2485.7788
15	2464.9623
16	2453.1077
17	2387.0366
18	2251.6233
19	2385.9931
20	2317.7095
21	2364.3908
22	2587.7642
23	2485.6074
24	2580.9011
25	2839.7561
26	3053.8345
27	3590.047
28	4235.427
29	4889.4684
30	4901.6037
31	4475.942
32	4689.0887
33	4605.5082
34	4273.1373
35	4060.1923
36	3585.5199
37	3189.7102
38	2963.3259
39	2750.7275
40	2449.4481
41	2343.9828
42	2230.2408
43	1966.0761
44	1860.8149
45	1981.8113
46	1706.3149
47	1662.3723
48	1821.329
49	1653.8494
50	1744.5413
51	1698.9056
52	1796.0902
53	1859.5515
54	1997.895
55	2213.3836
56	2417.5648
57	2618.4878
58	2889.1857
59	3006.0618
60	3190.2911
61	3578.0831
62	3094.455
63	3044.1516
64	3116.4866
65	2996.0657
66	3052.3653
67	2861.837
68	2754.7754
69	2494.9555
70	2341.849
71	2250.1625
72	2052.2288
73	2012.8332
74	1932.0253
75	1826.8744
76	1702.1615
77	1643.1515
78	1622.4136
79	1571.2551
80	1674.8773
81	1591.7371
82	1640.0609
83	1626.2656
84	1531.0521
85	1765.4937
86	1746.6703
87	1821.2815
88	2014.2539
89	2098.9314
90	2216.6316
91	2473.6163
92	2317.3449
93	2516.9728
94	2251.3999
95	2423.6398
96	2262.5463
97	2274.9544
98	2106.2834
99	2039.3224
100	2108.8935
101	2090.3745
102	1990.2532
103	1909.2269
104	1845.964
105	1685.8502
106	1691.9883
107	1726.6996
108	1665.1033
109	1635.9642
110	1586.0558
111	1639.073
112	1624.7089
113	1505.4474
114	1541.1767
115	1480.6098
116	1536.6404
117	1610.4837
118	1658.164
119	1753.2377
120	1751.8312
121	1774.2042
122	1885.0351
123	1820.5223
124	1824.7356
125	1939.7979
126	1727.5199
127	1767.4227
128	1745.8856
129	1785.0021
130	1754.0681
131	1832.6659
132	1775.0618
133	1740.4777
134	1760.6501
135	1770.3628
136	1703.3812
137	1624.1527
138	1683.4852
139	1673.7267
140	1700.8585
141	1534.6235
142	1615.0577
143	1682.038
144	1641.7719
145	1552.52
146	1491.2212
147	1533.0251
148	1529.2483
149	1636.4411
150	1644.4246
151	1747.551
152	1838.2636
153	1698.2841
154	1672.0889
155	1712.5503
156	1674.9897
157	1710.7311
158	1577.4098
159	1726.9605
160	1636.2888
161	1647.6323
162	1559.7068
163	1542.1474
164	1517.1592
165	1672.8798
166	1481.8847
167	1521.3063
168	1557.691
169	1564.9884
170	1556.8196
171	1509.6676
172	1680.5888
173	1511.7052
174	1548.8336
175	1532.8563
176	1555.8727
177	1504.7035
178	1634.9786
179	1584.2824
180	1543.5818
181	1568.9935
182	1541.219
183	1564.1852
184	1611.4778
185	1561.8027
186	1536.7561
187	1427.7789
188	1426.2728
189	1484.9894
190	1454.3086
191	1420.1442
192	1373.3438
193	1360.9799
194	1270.1835
195	1287.2237
196	1314.102
197	1164.7041
198	1182.7904
199	1350.3638
200	596.7219
