Position	Value
-200	33224.5057
-199	67164.4975
-198	67511.5558
-197	67755.9377
-196	67748.4439
-195	67709.874
-194	68483.6402
-193	68223.5459
-192	68315.5791
-191	67638.2319
-190	68343.8842
-189	68517.6585
-188	68086.8097
-187	67709.8594
-186	68111.0549
-185	67901.8833
-184	67707.7896
-183	67658.6707
-182	67670.3218
-181	66982.9128
-180	67555.1301
-179	67532.6485
-178	67375.4555
-177	67875.2981
-176	67594.9839
-175	67850.425
-174	68479.7568
-173	68742.5272
-172	69550.9924
-171	69503.7391
-170	69441.8392
-169	69382.4462
-168	70318.1357
-167	70434.0695
-166	70062.782
-165	72357.7859
-164	71100.0031
-163	71534.5376
-162	72973.03
-161	72383.6028
-160	72663.7637
-159	73307.9272
-158	72697.9698
-157	73350.7931
-156	73922.0389
-155	73449.8153
-154	72867.3449
-153	72853.7714
-152	72668.8109
-151	71879.6416
-150	71869.9619
-149	71507.0538
-148	71066.833
-147	70957.8607
-146	70751.1289
-145	70994.5183
-144	71612.1776
-143	72096.9166
-142	71284.6808
-141	72297.329
-140	72075.6649
-139	71974.2704
-138	73434.8891
-137	72413.4138
-136	73391.6052
-135	74988.6836
-134	75269.4782
-133	74792.4738
-132	76116.532
-131	75777.5967
-130	75431.4975
-129	76897.9784
-128	76873.1542
-127	76852.4796
-126	76531.6197
-125	77147.2809
-124	76438.5316
-123	77070.9656
-122	76342.5689
-121	76685.7195
-120	75907.9808
-119	75217.9825
-118	75292.3671
-117	74843.3462
-116	74340.6252
-115	73919.0859
-114	73593.6414
-113	74001.5344
-112	74268.8032
-111	74405.3949
-110	75161.7109
-109	73578.5065
-108	75276.8903
-107	74565.3965
-106	75051.5828
-105	75411.935
-104	76177.0079
-103	76931.1731
-102	78391.0847
-101	78263.8623
-100	77751.501
-99	79386.2344
-98	81629.6151
-97	80415.5374
-96	80081.4779
-95	81085.8251
-94	80993.2505
-93	81919.4975
-92	81412.4008
-91	80977.0345
-90	80490.1482
-89	79528.0573
-88	77896.465
-87	79110.609
-86	78012.7318
-85	76943.8077
-84	76705.3792
-83	77272.0017
-82	76815.4652
-81	77741.8245
-80	78007.5013
-79	78107.8989
-78	79470.8344
-77	79306.4203
-76	79241.1425
-75	81016.7503
-74	80415.1103
-73	80892.4971
-72	81636.5033
-71	83231.6986
-70	82913.9001
-69	85689.8614
-68	86040.8318
-67	86986.1693
-66	88749.2518
-65	89062.0458
-64	88915.7909
-63	89958.6241
-62	89118.0903
-61	89596.9227
-60	89656.0485
-59	87851.7257
-58	86933.9873
-57	85684.5745
-56	83550.4941
-55	82585.0352
-54	83487.0846
-53	82768.2921
-52	82202.9777
-51	82575.2918
-50	82301.0059
-49	82193.8003
-48	83282.9537
-47	82307.6289
-46	82968.7762
-45	84758.3965
-44	84252.6474
-43	84274.0958
-42	85714.1696
-41	85892.3281
-40	87885.6596
-39	89965.7421
-38	90714.1402
-37	93291.1275
-36	95677.4029
-35	98246.2722
-34	100104.7475
-33	104758.4409
-32	107028.715
-31	109378.4075
-30	112056.1678
-29	106594.7598
-28	99933.4283
-27	95737.4621
-26	90174.705
-25	90321.5617
-24	92840.7518
-23	90499.1963
-22	91337.9017
-21	95050.2257
-20	92854.8735
-19	94739.5617
-18	98489.9568
-17	100173.706
-16	102691.8095
-15	106798.4188
-14	109738.5634
-13	114844.1486
-12	123699.7494
-11	129809.5416
-10	135127.3508
-9	143007.975
-8	147626.2105
-7	161031.867
-6	172362.1829
-5	194308.4853
-4	207110.0703
-3	224851.9761
-2	241754.7872
-1	253128.9123
0	1599517.4602
1	253128.9123
2	241754.7872
3	224851.9761
4	207110.0703
5	194308.4853
6	172362.1829
7	161031.867
8	147626.2105
9	143007.975
10	135127.3508
11	129809.5416
12	123699.7494
13	114844.1486
14	109738.5634
15	106798.4188
16	102691.8095
17	100173.706
18	98489.9568
19	94739.5617
20	92854.8735
21	95050.2257
22	91337.9017
23	90499.1963
24	92840.7518
25	90321.5617
26	90174.705
27	95737.4621
28	99933.4283
29	106594.7598
30	112056.1678
31	109378.4075
32	107028.715
33	104758.4409
34	100104.7475
35	98246.2722
36	95677.4029
37	93291.1275
38	90714.1402
39	89965.7421
40	87885.6596
41	85892.3281
42	85714.1696
43	84274.0958
44	84252.6474
45	84758.3965
46	82968.7762
47	82307.6289
48	83282.9537
49	82193.8003
50	82301.0059
51	82575.2918
52	82202.9777
53	82768.2921
54	83487.0846
55	82585.0352
56	83550.4941
57	85684.5745
58	86933.9873
59	87851.7257
60	89656.0485
61	89596.9227
62	89118.0903
63	89958.6241
64	88915.7909
65	89062.0458
66	88749.2518
67	86986.1693
68	86040.8318
69	85689.8614
70	82913.9001
71	83231.6986
72	81636.5033
73	80892.4971
74	80415.1103
75	81016.7503
76	79241.1425
77	79306.4203
78	79470.8344
79	78107.8989
80	78007.5013
81	77741.8245
82	76815.4652
83	77272.0017
84	76705.3792
85	76943.8077
86	78012.7318
87	79110.609
88	77896.465
89	79528.0573
90	80490.1482
91	80977.0345
92	81412.4008
93	81919.4975
94	80993.2505
95	81085.8251
96	80081.4779
97	80415.5374
98	81629.6151
99	79386.2344
100	77751.501
101	78263.8623
102	78391.0847
103	76931.1731
104	76177.0079
105	75411.935
106	75051.5828
107	74565.3965
108	75276.8903
109	73578.5065
110	75161.7109
111	74405.3949
112	74268.8032
113	74001.5344
114	73593.6414
115	73919.0859
116	74340.6252
117	74843.3462
118	75292.3671
119	75217.9825
120	75907.9808
121	76685.7195
122	76342.5689
123	77070.9656
124	76438.5316
125	77147.2809
126	76531.6197
127	76852.4796
128	76873.1542
129	76897.9784
130	75431.4975
131	75777.5967
132	76116.532
133	74792.4738
134	75269.4782
135	74988.6836
136	73391.6052
137	72413.4138
138	73434.8891
139	71974.2704
140	72075.6649
141	72297.329
142	71284.6808
143	72096.9166
144	71612.1776
145	70994.5183
146	70751.1289
147	70957.8607
148	71066.833
149	71507.0538
150	71869.9619
151	71879.6416
152	72668.8109
153	72853.7714
154	72867.3449
155	73449.8153
156	73922.0389
157	73350.7931
158	72697.9698
159	73307.9272
160	72663.7637
161	72383.6028
162	72973.03
163	71534.5376
164	71100.0031
165	72357.7859
166	70062.782
167	70434.0695
168	70318.1357
169	69382.4462
170	69441.8392
171	69503.7391
172	69550.9924
173	68742.5272
174	68479.7568
175	67850.425
176	67594.9839
177	67875.2981
178	67375.4555
179	67532.6485
180	67555.1301
181	66982.9128
182	67670.3218
183	67658.6707
184	67707.7896
185	67901.8833
186	68111.0549
187	67709.8594
188	68086.8097
189	68517.6585
190	68343.8842
191	67638.2319
192	68315.5791
193	68223.5459
194	68483.6402
195	67709.874
196	67748.4439
197	67755.9377
198	67511.5558
199	67164.4975
200	33224.5057
