Position	Value
-200	5475.1507
-199	10864.7115
-198	11194.5649
-197	11280.286
-196	11086.0574
-195	11316.6921
-194	11439.8979
-193	11509.4647
-192	11183.5344
-191	11343.5087
-190	11064.2734
-189	11461.3597
-188	11279.7038
-187	11487.8218
-186	11544.8742
-185	11724.7148
-184	11580.7737
-183	11398.5074
-182	11312.6417
-181	11316.9028
-180	11329.0943
-179	11682.2217
-178	11181.0013
-177	11531.886
-176	11347.8445
-175	11186.5513
-174	11559.4832
-173	11365.4712
-172	11095.79
-171	11089.0643
-170	11279.1141
-169	11162.2161
-168	11426.9886
-167	11416.2807
-166	11399.5104
-165	11770.1649
-164	11681.7311
-163	11486.4025
-162	12078.513
-161	11740.9592
-160	11975.912
-159	12055.7727
-158	11739.7193
-157	12417.047
-156	12534.0446
-155	12312.5056
-154	12713.1509
-153	12651.8108
-152	12387.4437
-151	12401.8793
-150	12080.4489
-149	12071.8115
-148	11718.1444
-147	12155.7449
-146	11535.9546
-145	11694.9563
-144	11884.6549
-143	11859.9064
-142	11470.4867
-141	11385.6482
-140	12135.953
-139	11930.9628
-138	11690.9968
-137	11767.3788
-136	11675.9944
-135	11987.3786
-134	11974.1408
-133	12112.7385
-132	12344.765
-131	12481.9148
-130	12405.7411
-129	12472.6044
-128	12593.6285
-127	12937.9655
-126	12974.5647
-125	13038.596
-124	12856.1588
-123	13450.5205
-122	13285.8917
-121	13126.4787
-120	12323.8144
-119	12748.7841
-118	12214.8338
-117	12211.5394
-116	12041.5115
-115	12026.6386
-114	11927.1663
-113	11609.019
-112	12005.1971
-111	12048.7344
-110	12139.4863
-109	12074.9697
-108	12225.9976
-107	12412.8967
-106	12592.3678
-105	12655.138
-104	12581.9641
-103	13054.4897
-102	13466.4916
-101	13105.0974
-100	13414.8741
-99	13793.4437
-98	14004.6142
-97	14331.9205
-96	14562.0423
-95	14471.6538
-94	14866.9173
-93	15048.2805
-92	14871.4116
-91	14853.0529
-90	14510.1458
-89	13890.1542
-88	13972.6622
-87	13692.4806
-86	13647.1328
-85	13257.8261
-84	13055.1676
-83	13079.6261
-82	12888.5427
-81	13063.2773
-80	12954.7572
-79	12682.7887
-78	13241.7849
-77	13095.2372
-76	13367.3223
-75	13327.127
-74	13295.0804
-73	13476.4258
-72	14141.6337
-71	14279.7193
-70	14255.9348
-69	15163.421
-68	15243.3362
-67	15455.0057
-66	16293.0708
-65	16288.9029
-64	16442.4111
-63	16602.981
-62	16689.2516
-61	17221.5345
-60	16876.7591
-59	16457.5825
-58	16155.1696
-57	15728.8132
-56	14952.1347
-55	14832.3523
-54	14340.3224
-53	13729.6304
-52	14132.6793
-51	14169.1249
-50	14144.9406
-49	13769.2502
-48	14168.1349
-47	14189.8556
-46	13972.795
-45	14087.1021
-44	14051.0297
-43	14369.6264
-42	14598.4387
-41	14948.2569
-40	15378.9704
-39	15289.3392
-38	16023.4347
-37	16581.8636
-36	17006.0365
-35	18417.4291
-34	18213.5958
-33	19390.705
-32	20094.4377
-31	19227.5408
-30	21889.7383
-29	20981.3749
-28	19116.4567
-27	17901.0035
-26	17027.5679
-25	16398.8595
-24	16630.93
-23	16984.1045
-22	17913.6144
-21	18135.648
-20	18260.7967
-19	19017.6098
-18	19214.5224
-17	18961.7059
-16	19758.6166
-15	20217.6512
-14	20504.2546
-13	21749.5414
-12	23437.5392
-11	24579.6381
-10	25458.5588
-9	27689.8976
-8	27939.8395
-7	30963.6614
-6	32121.0581
-5	37663.1995
-4	40302.0297
-3	48225.0114
-2	51074.5037
-1	53204.5949
0	266546.2093
1	53204.5949
2	51074.5037
3	48225.0114
4	40302.0297
5	37663.1995
6	32121.0581
7	30963.6614
8	27939.8395
9	27689.8976
10	25458.5588
11	24579.6381
12	23437.5392
13	21749.5414
14	20504.2546
15	20217.6512
16	19758.6166
17	18961.7059
18	19214.5224
19	19017.6098
20	18260.7967
21	18135.648
22	17913.6144
23	16984.1045
24	16630.93
25	16398.8595
26	17027.5679
27	17901.0035
28	19116.4567
29	20981.3749
30	21889.7383
31	19227.5408
32	20094.4377
33	19390.705
34	18213.5958
35	18417.4291
36	17006.0365
37	16581.8636
38	16023.4347
39	15289.3392
40	15378.9704
41	14948.2569
42	14598.4387
43	14369.6264
44	14051.0297
45	14087.1021
46	13972.795
47	14189.8556
48	14168.1349
49	13769.2502
50	14144.9406
51	14169.1249
52	14132.6793
53	13729.6304
54	14340.3224
55	14832.3523
56	14952.1347
57	15728.8132
58	16155.1696
59	16457.5825
60	16876.7591
61	17221.5345
62	16689.2516
63	16602.981
64	16442.4111
65	16288.9029
66	16293.0708
67	15455.0057
68	15243.3362
69	15163.421
70	14255.9348
71	14279.7193
72	14141.6337
73	13476.4258
74	13295.0804
75	13327.127
76	13367.3223
77	13095.2372
78	13241.7849
79	12682.7887
80	12954.7572
81	13063.2773
82	12888.5427
83	13079.6261
84	13055.1676
85	13257.8261
86	13647.1328
87	13692.4806
88	13972.6622
89	13890.1542
90	14510.1458
91	14853.0529
92	14871.4116
93	15048.2805
94	14866.9173
95	14471.6538
96	14562.0423
97	14331.9205
98	14004.6142
99	13793.4437
100	13414.8741
101	13105.0974
102	13466.4916
103	13054.4897
104	12581.9641
105	12655.138
106	12592.3678
107	12412.8967
108	12225.9976
109	12074.9697
110	12139.4863
111	12048.7344
112	12005.1971
113	11609.019
114	11927.1663
115	12026.6386
116	12041.5115
117	12211.5394
118	12214.8338
119	12748.7841
120	12323.8144
121	13126.4787
122	13285.8917
123	13450.5205
124	12856.1588
125	13038.596
126	12974.5647
127	12937.9655
128	12593.6285
129	12472.6044
130	12405.7411
131	12481.9148
132	12344.765
133	12112.7385
134	11974.1408
135	11987.3786
136	11675.9944
137	11767.3788
138	11690.9968
139	11930.9628
140	12135.953
141	11385.6482
142	11470.4867
143	11859.9064
144	11884.6549
145	11694.9563
146	11535.9546
147	12155.7449
148	11718.1444
149	12071.8115
150	12080.4489
151	12401.8793
152	12387.4437
153	12651.8108
154	12713.1509
155	12312.5056
156	12534.0446
157	12417.047
158	11739.7193
159	12055.7727
160	11975.912
161	11740.9592
162	12078.513
163	11486.4025
164	11681.7311
165	11770.1649
166	11399.5104
167	11416.2807
168	11426.9886
169	11162.2161
170	11279.1141
171	11089.0643
172	11095.79
173	11365.4712
174	11559.4832
175	11186.5513
176	11347.8445
177	11531.886
178	11181.0013
179	11682.2217
180	11329.0943
181	11316.9028
182	11312.6417
183	11398.5074
184	11580.7737
185	11724.7148
186	11544.8742
187	11487.8218
188	11279.7038
189	11461.3597
190	11064.2734
191	11343.5087
192	11183.5344
193	11509.4647
194	11439.8979
195	11316.6921
196	11086.0574
197	11280.286
198	11194.5649
199	10864.7115
200	5475.1507
