Position	Value
-200	41370.1889
-199	83315.1139
-198	84382.3302
-197	84693.6377
-196	83028.6087
-195	83963.1042
-194	84185.1038
-193	84676.9717
-192	84588.0384
-191	84952.4817
-190	84288.1042
-189	85172.1313
-188	84780.2088
-187	85431.3195
-186	85727.5989
-185	84886.1874
-184	86585.7694
-183	85811.073
-182	85472.7141
-181	85670.2391
-180	85680.5125
-179	85426.6318
-178	85112.2575
-177	85268.4823
-176	86175.9692
-175	85427.6983
-174	86123.2429
-173	86278.736
-172	86128.3025
-171	86116.5271
-170	86682.0507
-169	87514.0119
-168	87119.5513
-167	87516.4436
-166	87036.8826
-165	89282.7947
-164	88402.449
-163	89249.2498
-162	90219.9597
-161	89188.6763
-160	89878.3852
-159	90061.5598
-158	90451.8781
-157	90273.4127
-156	92255.9841
-155	89431.3838
-154	91379.231
-153	90722.1098
-152	91133.0293
-151	90709.3523
-150	90905.7702
-149	91183.8266
-148	88456.5445
-147	90524.9053
-146	88444.4447
-145	88477.0462
-144	90390.1523
-143	90249.6741
-142	89937.7237
-141	89477.184
-140	90563.8694
-139	90048.8021
-138	91860.07
-137	91031.3434
-136	91210.2118
-135	93495.0971
-134	91908.8814
-133	92124.1039
-132	95313.7381
-131	93880.4777
-130	94087.861
-129	95047.6433
-128	94682.2496
-127	95580.4055
-126	96002.2751
-125	95643.4901
-124	96025.9366
-123	95934.9432
-122	96072.2375
-121	95828.4865
-120	94777.2497
-119	94539.2856
-118	93553.1126
-117	94476.865
-116	93152.334
-115	92398.5151
-114	92499.2844
-113	91959.9192
-112	93307.4623
-111	93846.258
-110	93190.3235
-109	93757.8827
-108	93506.8718
-107	93921.9314
-106	94422.5078
-105	95820.1059
-104	96333.9752
-103	97784.6624
-102	100299.9986
-101	99261.5365
-100	100506.6751
-99	101924.9502
-98	103223.8112
-97	102975.7763
-96	103328.8358
-95	104988.7824
-94	104612.2093
-93	104829.6824
-92	105548.6265
-91	105308.9962
-90	104129.9773
-89	102777.5379
-88	100753.9668
-87	100804.3842
-86	100786.5393
-85	98831.4898
-84	99830.6123
-83	97803.91
-82	99059.7353
-81	100050.0832
-80	98703.0867
-79	97523.0926
-78	99462.8833
-77	97915.8607
-76	99564.1437
-75	100047.9761
-74	100298.9668
-73	101836.307
-72	102782.9781
-71	105154.1714
-70	105095.2702
-69	109086.4075
-68	108536.04
-67	111336.2954
-66	113747.2994
-65	113076.6345
-64	114746.0366
-63	115287.0698
-62	115419.4191
-61	117141.7337
-60	117005.1686
-59	113515.5036
-58	113499.2491
-57	111765.557
-56	108648.2901
-55	108280.0772
-54	108381.9577
-53	107044.5854
-52	106204.6075
-51	106155.6447
-50	108128.1471
-49	106354.779
-48	106913.3427
-47	106354.9931
-46	106396.1436
-45	108517.2455
-44	106933.827
-43	108787.4247
-42	112383.117
-41	112659.5503
-40	113432.1342
-39	116031.5788
-38	118454.4364
-37	121683.3805
-36	122672.183
-35	127224.975
-34	127420.2135
-33	132718.3702
-32	134377.2527
-31	135580.9996
-30	141112.351
-29	134176.9094
-28	127873.3911
-27	125907.852
-26	122344.2929
-25	122704.003
-24	125845.267
-23	127590.4951
-22	130838.872
-21	135097.938
-20	137805.0466
-19	139412.6946
-18	144944.1706
-17	144497.7854
-16	148945.3355
-15	153097.6584
-14	155828.0542
-13	162797.9818
-12	173073.4867
-11	178061.2968
-10	184035.7025
-9	199185.9768
-8	204262.9022
-7	219165.4452
-6	230735.0905
-5	263225.7572
-4	274027.5107
-3	304689.4543
-2	297623.6882
-1	295348.6618
0	1246998.055
1	295348.6618
2	297623.6882
3	304689.4543
4	274027.5107
5	263225.7572
6	230735.0905
7	219165.4452
8	204262.9022
9	199185.9768
10	184035.7025
11	178061.2968
12	173073.4867
13	162797.9818
14	155828.0542
15	153097.6584
16	148945.3355
17	144497.7854
18	144944.1706
19	139412.6946
20	137805.0466
21	135097.938
22	130838.872
23	127590.4951
24	125845.267
25	122704.003
26	122344.2929
27	125907.852
28	127873.3911
29	134176.9094
30	141112.351
31	135580.9996
32	134377.2527
33	132718.3702
34	127420.2135
35	127224.975
36	122672.183
37	121683.3805
38	118454.4364
39	116031.5788
40	113432.1342
41	112659.5503
42	112383.117
43	108787.4247
44	106933.827
45	108517.2455
46	106396.1436
47	106354.9931
48	106913.3427
49	106354.779
50	108128.1471
51	106155.6447
52	106204.6075
53	107044.5854
54	108381.9577
55	108280.0772
56	108648.2901
57	111765.557
58	113499.2491
59	113515.5036
60	117005.1686
61	117141.7337
62	115419.4191
63	115287.0698
64	114746.0366
65	113076.6345
66	113747.2994
67	111336.2954
68	108536.04
69	109086.4075
70	105095.2702
71	105154.1714
72	102782.9781
73	101836.307
74	100298.9668
75	100047.9761
76	99564.1437
77	97915.8607
78	99462.8833
79	97523.0926
80	98703.0867
81	100050.0832
82	99059.7353
83	97803.91
84	99830.6123
85	98831.4898
86	100786.5393
87	100804.3842
88	100753.9668
89	102777.5379
90	104129.9773
91	105308.9962
92	105548.6265
93	104829.6824
94	104612.2093
95	104988.7824
96	103328.8358
97	102975.7763
98	103223.8112
99	101924.9502
100	100506.6751
101	99261.5365
102	100299.9986
103	97784.6624
104	96333.9752
105	95820.1059
106	94422.5078
107	93921.9314
108	93506.8718
109	93757.8827
110	93190.3235
111	93846.258
112	93307.4623
113	91959.9192
114	92499.2844
115	92398.5151
116	93152.334
117	94476.865
118	93553.1126
119	94539.2856
120	94777.2497
121	95828.4865
122	96072.2375
123	95934.9432
124	96025.9366
125	95643.4901
126	96002.2751
127	95580.4055
128	94682.2496
129	95047.6433
130	94087.861
131	93880.4777
132	95313.7381
133	92124.1039
134	91908.8814
135	93495.0971
136	91210.2118
137	91031.3434
138	91860.07
139	90048.8021
140	90563.8694
141	89477.184
142	89937.7237
143	90249.6741
144	90390.1523
145	88477.0462
146	88444.4447
147	90524.9053
148	88456.5445
149	91183.8266
150	90905.7702
151	90709.3523
152	91133.0293
153	90722.1098
154	91379.231
155	89431.3838
156	92255.9841
157	90273.4127
158	90451.8781
159	90061.5598
160	89878.3852
161	89188.6763
162	90219.9597
163	89249.2498
164	88402.449
165	89282.7947
166	87036.8826
167	87516.4436
168	87119.5513
169	87514.0119
170	86682.0507
171	86116.5271
172	86128.3025
173	86278.736
174	86123.2429
175	85427.6983
176	86175.9692
177	85268.4823
178	85112.2575
179	85426.6318
180	85680.5125
181	85670.2391
182	85472.7141
183	85811.073
184	86585.7694
185	84886.1874
186	85727.5989
187	85431.3195
188	84780.2088
189	85172.1313
190	84288.1042
191	84952.4817
192	84588.0384
193	84676.9717
194	84185.1038
195	83963.1042
196	83028.6087
197	84693.6377
198	84382.3302
199	83315.1139
200	41370.1889
