Position	Value
-200	115.2712
-199	261.2152
-198	210.1674
-197	220.1169
-196	311.0047
-195	207.1768
-194	178.9226
-193	232.4766
-192	226.4321
-191	209.7546
-190	243.3743
-189	233.4009
-188	265.0277
-187	239.9215
-186	218.9889
-185	207.7047
-184	199.5708
-183	190.4123
-182	226.7314
-181	234.4062
-180	238.5732
-179	290.0427
-178	225.931
-177	229.4542
-176	206.8946
-175	258.2324
-174	195.4155
-173	225.2784
-172	205.7958
-171	237.9091
-170	188.6148
-169	224.4337
-168	180.4576
-167	230.4985
-166	226.9791
-165	240.3243
-164	220.1812
-163	203.6474
-162	215.3681
-161	239.5557
-160	258.3772
-159	224.2707
-158	261.7073
-157	246.3493
-156	242.4641
-155	229.7917
-154	207.6919
-153	238.7679
-152	250.4157
-151	223.3408
-150	249.9675
-149	218.7493
-148	225.7563
-147	199.9986
-146	205.5801
-145	200.3984
-144	176.7115
-143	231.9166
-142	193.7028
-141	209.2512
-140	217.5479
-139	226.1586
-138	219.7105
-137	262.0602
-136	219.4846
-135	212.1088
-134	252.9259
-133	254.0956
-132	239.9231
-131	238.0644
-130	242.4734
-129	225.0426
-128	245.5898
-127	238.9622
-126	243.9376
-125	252.7315
-124	242.948
-123	243.6541
-122	247.4295
-121	215.9497
-120	202.3892
-119	258.0368
-118	226.6304
-117	211.6601
-116	188.0332
-115	190.7113
-114	190.9295
-113	180.1069
-112	192.1236
-111	198.4001
-110	212.5323
-109	232.9033
-108	219.7528
-107	241.6067
-106	237.4761
-105	247.0021
-104	265.4956
-103	232.0773
-102	246.6836
-101	211.6376
-100	282.7099
-99	325.8535
-98	281.3548
-97	310.7653
-96	287.1253
-95	314.9277
-94	281.9195
-93	301.6632
-92	294.8141
-91	311.4315
-90	273.7805
-89	279.9728
-88	219.0493
-87	226.0656
-86	227.0468
-85	250.8234
-84	223.3093
-83	196.0609
-82	231.0487
-81	217.6176
-80	196.5
-79	206.9146
-78	228.0844
-77	221.4199
-76	225.246
-75	217.7102
-74	238.6954
-73	247.1957
-72	211.359
-71	279.448
-70	287.7864
-69	302.7926
-68	330.5633
-67	363.9083
-66	439.8032
-65	411.1945
-64	397.2494
-63	368.2352
-62	424.7387
-61	393.5524
-60	402.1786
-59	393.1351
-58	332.208
-57	337.3467
-56	285.9755
-55	301.4065
-54	236.8708
-53	245.5412
-52	221.362
-51	238.635
-50	240.9081
-49	224.736
-48	231.3918
-47	232.2578
-46	195.4255
-45	260.7299
-44	273.6783
-43	284.8583
-42	270.5546
-41	322.0538
-40	331.9351
-39	365.1356
-38	433.3175
-37	426.8176
-36	512.2407
-35	573.1269
-34	564.4945
-33	620.3231
-32	577.1177
-31	610.038
-30	627.7107
-29	643.2977
-28	502.7852
-27	403.4188
-26	368.1874
-25	326.4699
-24	311.2514
-23	298.5206
-22	372.2424
-21	371.7853
-20	306.4959
-19	321.3388
-18	304.31
-17	331.8323
-16	349.7134
-15	373.4511
-14	339.6231
-13	367.6922
-12	512.8764
-11	463.6522
-10	516.0269
-9	562.4924
-8	553.8886
-7	698.5033
-6	794.6246
-5	1124.2604
-4	1311.8474
-3	1918.186
-2	2243.3765
-1	2868.8014
0	25824.26
1	2868.8014
2	2243.3765
3	1918.186
4	1311.8474
5	1124.2604
6	794.6246
7	698.5033
8	553.8886
9	562.4924
10	516.0269
11	463.6522
12	512.8764
13	367.6922
14	339.6231
15	373.4511
16	349.7134
17	331.8323
18	304.31
19	321.3388
20	306.4959
21	371.7853
22	372.2424
23	298.5206
24	311.2514
25	326.4699
26	368.1874
27	403.4188
28	502.7852
29	643.2977
30	627.7107
31	610.038
32	577.1177
33	620.3231
34	564.4945
35	573.1269
36	512.2407
37	426.8176
38	433.3175
39	365.1356
40	331.9351
41	322.0538
42	270.5546
43	284.8583
44	273.6783
45	260.7299
46	195.4255
47	232.2578
48	231.3918
49	224.736
50	240.9081
51	238.635
52	221.362
53	245.5412
54	236.8708
55	301.4065
56	285.9755
57	337.3467
58	332.208
59	393.1351
60	402.1786
61	393.5524
62	424.7387
63	368.2352
64	397.2494
65	411.1945
66	439.8032
67	363.9083
68	330.5633
69	302.7926
70	287.7864
71	279.448
72	211.359
73	247.1957
74	238.6954
75	217.7102
76	225.246
77	221.4199
78	228.0844
79	206.9146
80	196.5
81	217.6176
82	231.0487
83	196.0609
84	223.3093
85	250.8234
86	227.0468
87	226.0656
88	219.0493
89	279.9728
90	273.7805
91	311.4315
92	294.8141
93	301.6632
94	281.9195
95	314.9277
96	287.1253
97	310.7653
98	281.3548
99	325.8535
100	282.7099
101	211.6376
102	246.6836
103	232.0773
104	265.4956
105	247.0021
106	237.4761
107	241.6067
108	219.7528
109	232.9033
110	212.5323
111	198.4001
112	192.1236
113	180.1069
114	190.9295
115	190.7113
116	188.0332
117	211.6601
118	226.6304
119	258.0368
120	202.3892
121	215.9497
122	247.4295
123	243.6541
124	242.948
125	252.7315
126	243.9376
127	238.9622
128	245.5898
129	225.0426
130	242.4734
131	238.0644
132	239.9231
133	254.0956
134	252.9259
135	212.1088
136	219.4846
137	262.0602
138	219.7105
139	226.1586
140	217.5479
141	209.2512
142	193.7028
143	231.9166
144	176.7115
145	200.3984
146	205.5801
147	199.9986
148	225.7563
149	218.7493
150	249.9675
151	223.3408
152	250.4157
153	238.7679
154	207.6919
155	229.7917
156	242.4641
157	246.3493
158	261.7073
159	224.2707
160	258.3772
161	239.5557
162	215.3681
163	203.6474
164	220.1812
165	240.3243
166	226.9791
167	230.4985
168	180.4576
169	224.4337
170	188.6148
171	237.9091
172	205.7958
173	225.2784
174	195.4155
175	258.2324
176	206.8946
177	229.4542
178	225.931
179	290.0427
180	238.5732
181	234.4062
182	226.7314
183	190.4123
184	199.5708
185	207.7047
186	218.9889
187	239.9215
188	265.0277
189	233.4009
190	243.3743
191	209.7546
192	226.4321
193	232.4766
194	178.9226
195	207.1768
196	311.0047
197	220.1169
198	210.1674
199	261.2152
200	115.2712
