Position	Value
-200	1406.8314
-199	2906.4088
-198	2803.7696
-197	2945.3362
-196	2992.7922
-195	2954.2861
-194	3008.555
-193	3088.5694
-192	3039.2934
-191	3061.4557
-190	3141.4901
-189	3074.4198
-188	3056.4525
-187	3160.9712
-186	3179.6096
-185	3193.5155
-184	3281.9793
-183	3047.9623
-182	3157.2672
-181	3105.7004
-180	3020.6241
-179	3092.4
-178	3237.3481
-177	2997.9641
-176	2975.7339
-175	2928.3019
-174	2988.1002
-173	2986.9646
-172	2973.6963
-171	2918.0177
-170	3023.0819
-169	3129.888
-168	3059.3716
-167	3172.7002
-166	3130.6317
-165	3266.2679
-164	3202.0532
-163	3414.6593
-162	3329.2948
-161	3391.9544
-160	3414.3646
-159	3454.7295
-158	3560.3253
-157	3556.3818
-156	3597.6454
-155	3483.2943
-154	3568.5118
-153	3523.475
-152	3699.8916
-151	3488.0872
-150	3441.5868
-149	3443.8376
-148	3215.8302
-147	3301.0035
-146	3251.4464
-145	3203.3354
-144	3112.6283
-143	3196.7377
-142	3222.1165
-141	3164.9009
-140	3290.916
-139	3318.1794
-138	3218.0134
-137	3344.7882
-136	3430.6094
-135	3563.6143
-134	3501.2967
-133	3379.7493
-132	3827.1489
-131	3632.221
-130	3586.029
-129	3947.9806
-128	3890.3196
-127	3939.5627
-126	3922.5659
-125	4009.5022
-124	3984.9622
-123	3994.2015
-122	4081.8904
-121	3965.985
-120	3788.0833
-119	3918.4958
-118	3750.6695
-117	3586.9821
-116	3490.5168
-115	3460.0839
-114	3394.9449
-113	3529.7679
-112	3434.716
-111	3332.5796
-110	3468.0744
-109	3360.598
-108	3387.0264
-107	3505.9969
-106	3540.7324
-105	3570.9789
-104	3673.5556
-103	3849.4883
-102	3829.6638
-101	4138.7572
-100	4132.5972
-99	4343.1098
-98	4416.197
-97	4558.2643
-96	4603.6968
-95	4832.4031
-94	4661.7444
-93	4801.0848
-92	4728.8714
-91	4830.2033
-90	4496.7202
-89	4352.1382
-88	4401.8763
-87	4129.48
-86	3976.8054
-85	3909.0667
-84	3772.929
-83	3572.1484
-82	3556.4304
-81	3618.8606
-80	3770.9529
-79	3623.808
-78	3722.6909
-77	3538.9234
-76	3644.812
-75	3818.7546
-74	4057.8155
-73	3920.8445
-72	4113.1876
-71	4339.4727
-70	4573.389
-69	4866.5911
-68	4973.1691
-67	5130.1925
-66	5398.2467
-65	5637.9867
-64	5787.5538
-63	5780.4188
-62	5717.4008
-61	6376.9668
-60	6136.0714
-59	5795.3125
-58	5536.9741
-57	5283.3415
-56	4950.5941
-55	4759.7406
-54	4354.7898
-53	4158.5539
-52	4016.6079
-51	3977.9274
-50	3903.8141
-49	3963.7709
-48	4093.7426
-47	3860.8215
-46	3933.3398
-45	4151.7516
-44	3996.3534
-43	4172.5637
-42	4398.9997
-41	4426.6224
-40	4858.0759
-39	4973.3828
-38	5303.5165
-37	5616.8144
-36	6083.2881
-35	6615.5021
-34	6661.6215
-33	6937.8354
-32	7299.457
-31	7185.6906
-30	7723.1823
-29	7663.0521
-28	7205.1978
-27	6858.9315
-26	5525.9636
-25	5143.4969
-24	5004.116
-23	5181.5784
-22	5172.968
-21	5063.7938
-20	4849.9478
-19	5115.5865
-18	4974.2807
-17	5136.8179
-16	4980.3064
-15	5067.8733
-14	5091.2241
-13	5499.3194
-12	5985.7878
-11	5987.564
-10	6527.2936
-9	7392.4179
-8	7324.1256
-7	8348.5108
-6	8467.4628
-5	10039.2532
-4	10633.4085
-3	11561.9904
-2	11708.7688
-1	12319.7929
0	91013.0224
1	12319.7929
2	11708.7688
3	11561.9904
4	10633.4085
5	10039.2532
6	8467.4628
7	8348.5108
8	7324.1256
9	7392.4179
10	6527.2936
11	5987.564
12	5985.7878
13	5499.3194
14	5091.2241
15	5067.8733
16	4980.3064
17	5136.8179
18	4974.2807
19	5115.5865
20	4849.9478
21	5063.7938
22	5172.968
23	5181.5784
24	5004.116
25	5143.4969
26	5525.9636
27	6858.9315
28	7205.1978
29	7663.0521
30	7723.1823
31	7185.6906
32	7299.457
33	6937.8354
34	6661.6215
35	6615.5021
36	6083.2881
37	5616.8144
38	5303.5165
39	4973.3828
40	4858.0759
41	4426.6224
42	4398.9997
43	4172.5637
44	3996.3534
45	4151.7516
46	3933.3398
47	3860.8215
48	4093.7426
49	3963.7709
50	3903.8141
51	3977.9274
52	4016.6079
53	4158.5539
54	4354.7898
55	4759.7406
56	4950.5941
57	5283.3415
58	5536.9741
59	5795.3125
60	6136.0714
61	6376.9668
62	5717.4008
63	5780.4188
64	5787.5538
65	5637.9867
66	5398.2467
67	5130.1925
68	4973.1691
69	4866.5911
70	4573.389
71	4339.4727
72	4113.1876
73	3920.8445
74	4057.8155
75	3818.7546
76	3644.812
77	3538.9234
78	3722.6909
79	3623.808
80	3770.9529
81	3618.8606
82	3556.4304
83	3572.1484
84	3772.929
85	3909.0667
86	3976.8054
87	4129.48
88	4401.8763
89	4352.1382
90	4496.7202
91	4830.2033
92	4728.8714
93	4801.0848
94	4661.7444
95	4832.4031
96	4603.6968
97	4558.2643
98	4416.197
99	4343.1098
100	4132.5972
101	4138.7572
102	3829.6638
103	3849.4883
104	3673.5556
105	3570.9789
106	3540.7324
107	3505.9969
108	3387.0264
109	3360.598
110	3468.0744
111	3332.5796
112	3434.716
113	3529.7679
114	3394.9449
115	3460.0839
116	3490.5168
117	3586.9821
118	3750.6695
119	3918.4958
120	3788.0833
121	3965.985
122	4081.8904
123	3994.2015
124	3984.9622
125	4009.5022
126	3922.5659
127	3939.5627
128	3890.3196
129	3947.9806
130	3586.029
131	3632.221
132	3827.1489
133	3379.7493
134	3501.2967
135	3563.6143
136	3430.6094
137	3344.7882
138	3218.0134
139	3318.1794
140	3290.916
141	3164.9009
142	3222.1165
143	3196.7377
144	3112.6283
145	3203.3354
146	3251.4464
147	3301.0035
148	3215.8302
149	3443.8376
150	3441.5868
151	3488.0872
152	3699.8916
153	3523.475
154	3568.5118
155	3483.2943
156	3597.6454
157	3556.3818
158	3560.3253
159	3454.7295
160	3414.3646
161	3391.9544
162	3329.2948
163	3414.6593
164	3202.0532
165	3266.2679
166	3130.6317
167	3172.7002
168	3059.3716
169	3129.888
170	3023.0819
171	2918.0177
172	2973.6963
173	2986.9646
174	2988.1002
175	2928.3019
176	2975.7339
177	2997.9641
178	3237.3481
179	3092.4
180	3020.6241
181	3105.7004
182	3157.2672
183	3047.9623
184	3281.9793
185	3193.5155
186	3179.6096
187	3160.9712
188	3056.4525
189	3074.4198
190	3141.4901
191	3061.4557
192	3039.2934
193	3088.5694
194	3008.555
195	2954.2861
196	2992.7922
197	2945.3362
198	2803.7696
199	2906.4088
200	1406.8314
