Position	Value
-200	272.618
-199	619.9673
-198	528.0722
-197	567.463
-196	599.7925
-195	545.3996
-194	516.9052
-193	552.9911
-192	543.2293
-191	555.1377
-190	559.4332
-189	573.4086
-188	574.619
-187	531.7269
-186	575.2439
-185	500.4335
-184	525.4903
-183	548.7524
-182	464.6618
-181	563.6054
-180	525.4713
-179	581.3381
-178	550.0598
-177	521.4844
-176	471.6087
-175	574.9951
-174	519.9982
-173	501.5332
-172	523.3766
-171	472.0588
-170	561.0431
-169	523.1536
-168	519.1732
-167	578.8128
-166	555.441
-165	575.3492
-164	602.2835
-163	543.1855
-162	529.9216
-161	545.7001
-160	626.2392
-159	584.0789
-158	598.697
-157	672.4748
-156	634.7674
-155	590.1303
-154	633.8461
-153	612.6077
-152	617.8747
-151	657.4064
-150	625.2637
-149	600.5099
-148	522.2787
-147	582.6506
-146	531.0725
-145	566.8989
-144	540.7868
-143	596.1348
-142	542.8096
-141	562.089
-140	497.7516
-139	575.1736
-138	542.0497
-137	560.9391
-136	546.4658
-135	565.0304
-134	599.169
-133	589.8054
-132	589.0289
-131	591.4738
-130	598.8747
-129	555.8905
-128	619.6405
-127	607.7651
-126	625.5941
-125	656.1907
-124	614.28
-123	665.6303
-122	665.3691
-121	633.8707
-120	571.4238
-119	630.6669
-118	553.4242
-117	545.9063
-116	557.0019
-115	492.484
-114	545.9529
-113	499.4187
-112	550.391
-111	565.2517
-110	554.4967
-109	572.6653
-108	528.3902
-107	597.6268
-106	551.7651
-105	573.5965
-104	588.0151
-103	594.4859
-102	625.4017
-101	622.4738
-100	710.0903
-99	676.1761
-98	712.1556
-97	725.4987
-96	728.3015
-95	699.8242
-94	728.3109
-93	680.7333
-92	728.7126
-91	739.508
-90	660.9488
-89	668.4592
-88	653.7612
-87	652.2714
-86	565.4636
-85	618.3945
-84	611.5475
-83	575.1457
-82	571.1539
-81	556.8287
-80	547.162
-79	590.5094
-78	574.43
-77	599.6344
-76	602.7299
-75	574.8119
-74	601.6263
-73	571.1691
-72	614.8939
-71	667.8786
-70	630.518
-69	688.0091
-68	813.9236
-67	935.8826
-66	1009.8142
-65	877.6832
-64	892.1514
-63	944.4127
-62	959.4047
-61	921.0976
-60	949.478
-59	857.9603
-58	825.3719
-57	808.6958
-56	709.5683
-55	735.2349
-54	700.3242
-53	668.3293
-52	627.1803
-51	630.8823
-50	651.6271
-49	662.423
-48	687.5489
-47	591.7019
-46	622.2496
-45	652.4001
-44	775.0655
-43	714.0143
-42	730.6576
-41	730.0644
-40	833.471
-39	786.7073
-38	956.6257
-37	1011.3335
-36	1153.7445
-35	1194.1266
-34	1196.3744
-33	1413.8528
-32	1268.8928
-31	1245.4512
-30	1410.0588
-29	1440.4524
-28	1218.5481
-27	1124.5081
-26	1000.8262
-25	868.887
-24	838.9916
-23	919.386
-22	1028.3343
-21	918.7317
-20	924.6326
-19	951.1537
-18	945.9751
-17	1043.7471
-16	1048.5082
-15	1112.9036
-14	1092.2555
-13	1126.1327
-12	1299.6175
-11	1298.9694
-10	1410.8475
-9	1554.3088
-8	1514.8138
-7	1862.0894
-6	2123.808
-5	2618.0735
-4	3116.6436
-3	4120.5134
-2	4623.7935
-1	5148.9892
0	45152.2594
1	5148.9892
2	4623.7935
3	4120.5134
4	3116.6436
5	2618.0735
6	2123.808
7	1862.0894
8	1514.8138
9	1554.3088
10	1410.8475
11	1298.9694
12	1299.6175
13	1126.1327
14	1092.2555
15	1112.9036
16	1048.5082
17	1043.7471
18	945.9751
19	951.1537
20	924.6326
21	918.7317
22	1028.3343
23	919.386
24	838.9916
25	868.887
26	1000.8262
27	1124.5081
28	1218.5481
29	1440.4524
30	1410.0588
31	1245.4512
32	1268.8928
33	1413.8528
34	1196.3744
35	1194.1266
36	1153.7445
37	1011.3335
38	956.6257
39	786.7073
40	833.471
41	730.0644
42	730.6576
43	714.0143
44	775.0655
45	652.4001
46	622.2496
47	591.7019
48	687.5489
49	662.423
50	651.6271
51	630.8823
52	627.1803
53	668.3293
54	700.3242
55	735.2349
56	709.5683
57	808.6958
58	825.3719
59	857.9603
60	949.478
61	921.0976
62	959.4047
63	944.4127
64	892.1514
65	877.6832
66	1009.8142
67	935.8826
68	813.9236
69	688.0091
70	630.518
71	667.8786
72	614.8939
73	571.1691
74	601.6263
75	574.8119
76	602.7299
77	599.6344
78	574.43
79	590.5094
80	547.162
81	556.8287
82	571.1539
83	575.1457
84	611.5475
85	618.3945
86	565.4636
87	652.2714
88	653.7612
89	668.4592
90	660.9488
91	739.508
92	728.7126
93	680.7333
94	728.3109
95	699.8242
96	728.3015
97	725.4987
98	712.1556
99	676.1761
100	710.0903
101	622.4738
102	625.4017
103	594.4859
104	588.0151
105	573.5965
106	551.7651
107	597.6268
108	528.3902
109	572.6653
110	554.4967
111	565.2517
112	550.391
113	499.4187
114	545.9529
115	492.484
116	557.0019
117	545.9063
118	553.4242
119	630.6669
120	571.4238
121	633.8707
122	665.3691
123	665.6303
124	614.28
125	656.1907
126	625.5941
127	607.7651
128	619.6405
129	555.8905
130	598.8747
131	591.4738
132	589.0289
133	589.8054
134	599.169
135	565.0304
136	546.4658
137	560.9391
138	542.0497
139	575.1736
140	497.7516
141	562.089
142	542.8096
143	596.1348
144	540.7868
145	566.8989
146	531.0725
147	582.6506
148	522.2787
149	600.5099
150	625.2637
151	657.4064
152	617.8747
153	612.6077
154	633.8461
155	590.1303
156	634.7674
157	672.4748
158	598.697
159	584.0789
160	626.2392
161	545.7001
162	529.9216
163	543.1855
164	602.2835
165	575.3492
166	555.441
167	578.8128
168	519.1732
169	523.1536
170	561.0431
171	472.0588
172	523.3766
173	501.5332
174	519.9982
175	574.9951
176	471.6087
177	521.4844
178	550.0598
179	581.3381
180	525.4713
181	563.6054
182	464.6618
183	548.7524
184	525.4903
185	500.4335
186	575.2439
187	531.7269
188	574.619
189	573.4086
190	559.4332
191	555.1377
192	543.2293
193	552.9911
194	516.9052
195	545.3996
196	599.7925
197	567.463
198	528.0722
199	619.9673
200	272.618
