Position	Value
-200	8622.7205
-199	17566.6263
-198	17709.9055
-197	17708.6961
-196	18009.8009
-195	17865.0156
-194	17965.6581
-193	17940.5458
-192	17999.9189
-191	18231.5023
-190	18442.2847
-189	18347.3297
-188	18442.2985
-187	18105.1313
-186	18614.805
-185	18726.7153
-184	18360.4475
-183	18536.3268
-182	18202.0293
-181	18183.3614
-180	18312.6897
-179	18289.4188
-178	18546.3212
-177	17877.9938
-176	17938.5806
-175	18300.1494
-174	17834.0197
-173	17814.5074
-172	17707.8139
-171	17966.6839
-170	17442.4758
-169	17548.22
-168	18155.1582
-167	18055.3542
-166	18158.4622
-165	18678.712
-164	18548.3897
-163	18517.1168
-162	18935.4338
-161	18784.3174
-160	18599.6508
-159	19589.6049
-158	19038.6093
-157	19208.8941
-156	19900.7192
-155	19724.5524
-154	19083.5453
-153	19272.8473
-152	19412.0063
-151	19126.1916
-150	19229.6735
-149	18947.3031
-148	18889.4897
-147	18516.8281
-146	18542.7883
-145	19042.0346
-144	18703.7429
-143	18634.0359
-142	18454.3555
-141	18566.8482
-140	18310.6433
-139	18518.3323
-138	18852.424
-137	19018.7805
-136	19140.8904
-135	19424.5287
-134	19429.533
-133	19569.196
-132	20014.0135
-131	20181.4141
-130	20197.454
-129	20573.4629
-128	21190.833
-127	20759.7952
-126	21174.4929
-125	21171.2574
-124	21415.6974
-123	21343.9967
-122	21617.5307
-121	21507.5302
-120	21419.4824
-119	21464.3616
-118	20776.315
-117	20965.8007
-116	20188.8332
-115	20420.7173
-114	19636.7027
-113	20010.581
-112	19768.7804
-111	19488.3443
-110	19884.7274
-109	19713.2866
-108	19742.393
-107	19680.1592
-106	19764.8537
-105	20416.9591
-104	20277.0213
-103	21293.3721
-102	21247.9115
-101	21182.121
-100	21772.8763
-99	22720.4826
-98	22875.4024
-97	22586.2029
-96	23151.4431
-95	23802.1576
-94	23595.6424
-93	23875.1023
-92	23607.1767
-91	23473.436
-90	23818.486
-89	23321.7555
-88	23023.4122
-87	22339.4847
-86	21845.4726
-85	22097.2999
-84	21168.4725
-83	20672.0668
-82	20681.801
-81	20790.313
-80	20415.8263
-79	20910.4657
-78	21269.111
-77	20735.3938
-76	21070.1405
-75	21003.3167
-74	21164.6707
-73	21777.9042
-72	21986.7715
-71	22903.5778
-70	22650.6629
-69	23964.5273
-68	23997.4783
-67	24710.9067
-66	26048.4225
-65	25686.8919
-64	26846.143
-63	26889.4896
-62	26865.9377
-61	28009.8484
-60	27559.6399
-59	26887.2499
-58	25881.4143
-57	25456.453
-56	24867.4118
-55	24035.1188
-54	23909.3786
-53	22946.1747
-52	22657.4887
-51	22648.7051
-50	22535.2273
-49	21989.294
-48	22438.4491
-47	22488.7913
-46	22653.0551
-45	23360.3767
-44	23084.7632
-43	23033.7688
-42	23849.4667
-41	24503.7267
-40	24548.9442
-39	25935.0284
-38	25682.1254
-37	26302.4361
-36	27848.6091
-35	29390.221
-34	29565.5837
-33	31016.6693
-32	32123.6558
-31	33316.5987
-30	33356.2012
-29	33078.0731
-28	30170.8792
-27	29472.1504
-26	27536.2373
-25	28098.55
-24	28380.5408
-23	27752.0738
-22	27649.7134
-21	27508.1525
-20	27892.8808
-19	27346.3498
-18	28671.5504
-17	27845.7694
-16	29214.3547
-15	29639.1501
-14	30808.1806
-13	31523.3004
-12	33836.3724
-11	34604.0126
-10	35818.1052
-9	38645.5041
-8	39436.6749
-7	43470.9511
-6	44253.2402
-5	47837.2753
-4	50114.8966
-3	52726.9076
-2	53385.3416
-1	54213.1367
0	304567.2921
1	54213.1367
2	53385.3416
3	52726.9076
4	50114.8966
5	47837.2753
6	44253.2402
7	43470.9511
8	39436.6749
9	38645.5041
10	35818.1052
11	34604.0126
12	33836.3724
13	31523.3004
14	30808.1806
15	29639.1501
16	29214.3547
17	27845.7694
18	28671.5504
19	27346.3498
20	27892.8808
21	27508.1525
22	27649.7134
23	27752.0738
24	28380.5408
25	28098.55
26	27536.2373
27	29472.1504
28	30170.8792
29	33078.0731
30	33356.2012
31	33316.5987
32	32123.6558
33	31016.6693
34	29565.5837
35	29390.221
36	27848.6091
37	26302.4361
38	25682.1254
39	25935.0284
40	24548.9442
41	24503.7267
42	23849.4667
43	23033.7688
44	23084.7632
45	23360.3767
46	22653.0551
47	22488.7913
48	22438.4491
49	21989.294
50	22535.2273
51	22648.7051
52	22657.4887
53	22946.1747
54	23909.3786
55	24035.1188
56	24867.4118
57	25456.453
58	25881.4143
59	26887.2499
60	27559.6399
61	28009.8484
62	26865.9377
63	26889.4896
64	26846.143
65	25686.8919
66	26048.4225
67	24710.9067
68	23997.4783
69	23964.5273
70	22650.6629
71	22903.5778
72	21986.7715
73	21777.9042
74	21164.6707
75	21003.3167
76	21070.1405
77	20735.3938
78	21269.111
79	20910.4657
80	20415.8263
81	20790.313
82	20681.801
83	20672.0668
84	21168.4725
85	22097.2999
86	21845.4726
87	22339.4847
88	23023.4122
89	23321.7555
90	23818.486
91	23473.436
92	23607.1767
93	23875.1023
94	23595.6424
95	23802.1576
96	23151.4431
97	22586.2029
98	22875.4024
99	22720.4826
100	21772.8763
101	21182.121
102	21247.9115
103	21293.3721
104	20277.0213
105	20416.9591
106	19764.8537
107	19680.1592
108	19742.393
109	19713.2866
110	19884.7274
111	19488.3443
112	19768.7804
113	20010.581
114	19636.7027
115	20420.7173
116	20188.8332
117	20965.8007
118	20776.315
119	21464.3616
120	21419.4824
121	21507.5302
122	21617.5307
123	21343.9967
124	21415.6974
125	21171.2574
126	21174.4929
127	20759.7952
128	21190.833
129	20573.4629
130	20197.454
131	20181.4141
132	20014.0135
133	19569.196
134	19429.533
135	19424.5287
136	19140.8904
137	19018.7805
138	18852.424
139	18518.3323
140	18310.6433
141	18566.8482
142	18454.3555
143	18634.0359
144	18703.7429
145	19042.0346
146	18542.7883
147	18516.8281
148	18889.4897
149	18947.3031
150	19229.6735
151	19126.1916
152	19412.0063
153	19272.8473
154	19083.5453
155	19724.5524
156	19900.7192
157	19208.8941
158	19038.6093
159	19589.6049
160	18599.6508
161	18784.3174
162	18935.4338
163	18517.1168
164	18548.3897
165	18678.712
166	18158.4622
167	18055.3542
168	18155.1582
169	17548.22
170	17442.4758
171	17966.6839
172	17707.8139
173	17814.5074
174	17834.0197
175	18300.1494
176	17938.5806
177	17877.9938
178	18546.3212
179	18289.4188
180	18312.6897
181	18183.3614
182	18202.0293
183	18536.3268
184	18360.4475
185	18726.7153
186	18614.805
187	18105.1313
188	18442.2985
189	18347.3297
190	18442.2847
191	18231.5023
192	17999.9189
193	17940.5458
194	17965.6581
195	17865.0156
196	18009.8009
197	17708.6961
198	17709.9055
199	17566.6263
200	8622.7205
