Position	Value
-200	5467.1703
-199	10526.2223
-198	10671.0948
-197	11168.9226
-196	10965.5398
-195	10694.5825
-194	10830.1846
-193	10693.707
-192	10791.1324
-191	11086.6704
-190	10887.7458
-189	11036.9903
-188	10696.9455
-187	10882.8425
-186	11036.9847
-185	10577.7723
-184	10931.7618
-183	10713.6786
-182	10885.2404
-181	10706.828
-180	10896.3342
-179	10730.3928
-178	10701.9524
-177	10768.308
-176	10865.0967
-175	10571.6201
-174	10882.4414
-173	10667.8582
-172	10470.1725
-171	10545.1996
-170	10737.2884
-169	10656.171
-168	10763.4533
-167	10709.1051
-166	10756.2653
-165	11201.2879
-164	10714.6464
-163	11019.2674
-162	10936.8525
-161	10941.4303
-160	10906.0953
-159	11145.8289
-158	10711.0739
-157	11405.5878
-156	11405.2185
-155	11437.6671
-154	11822.5925
-153	11468.9889
-152	11559.3669
-151	10944.7515
-150	11189.7076
-149	11482.6715
-148	11201.6478
-147	11557.7358
-146	11093.7722
-145	10981.3452
-144	11386.6839
-143	11467.992
-142	11273.6988
-141	11450.0371
-140	11957.8311
-139	11474.4727
-138	11527.6043
-137	11336.0735
-136	11448.7867
-135	11636.1741
-134	11895.1666
-133	11423.7822
-132	12002.8001
-131	11853.5274
-130	11778.2935
-129	12221.9624
-128	11857.0799
-127	12006.0904
-126	11952.5306
-125	11624.5196
-124	12040.1674
-123	11852.5594
-122	12363.1137
-121	11995.0127
-120	11825.6759
-119	12097.5356
-118	11995.0179
-117	11527.6917
-116	11392.3655
-115	11431.5493
-114	11540.0092
-113	11389.9441
-112	11328.0254
-111	11907.1181
-110	11666.5092
-109	11826.308
-108	11627.42
-107	11990.4205
-106	11762.5036
-105	12087.8337
-104	12171.2299
-103	12275.9766
-102	12320.5124
-101	12779.1152
-100	13349.4316
-99	13216.2761
-98	13527.4292
-97	13442.9281
-96	13722.0993
-95	13403.5234
-94	13761.5639
-93	13975.7246
-92	13608.9357
-91	13670.6757
-90	13399.1011
-89	13259.4944
-88	12980.4004
-87	13111.793
-86	12937.481
-85	12750.6988
-84	12186.5427
-83	12385.0364
-82	11991.8181
-81	12500.3733
-80	12473.5805
-79	12043.7953
-78	12776.4416
-77	12443.462
-76	12921.2386
-75	12312.0342
-74	12767.4384
-73	13365.7716
-72	13298.5989
-71	13710.808
-70	13477.6622
-69	14261.2468
-68	14262.1309
-67	14668.2591
-66	14646.0176
-65	14907.9541
-64	15235.3984
-63	14956.9716
-62	15340.1476
-61	15459.1942
-60	15721.4151
-59	14568.2923
-58	14685.2684
-57	14698.9812
-56	14048.691
-55	13905.6576
-54	13991.2403
-53	13408.094
-52	13470.879
-51	13519.828
-50	13872.293
-49	13609.2094
-48	13508.5104
-47	13540.2248
-46	13345.6328
-45	14080.944
-44	14064.4375
-43	14103.9987
-42	14345.046
-41	14719.0635
-40	15206.7834
-39	15245.411
-38	15877.6238
-37	16254.323
-36	17128.1255
-35	17537.331
-34	18103.7932
-33	18643.1837
-32	18776.0688
-31	19216.527
-30	19770.206
-29	18919.1424
-28	17633.7501
-27	17836.0628
-26	17364.1591
-25	16569.1868
-24	16427.1376
-23	16818.5492
-22	17312.649
-21	17501.0747
-20	17046.4965
-19	17808.426
-18	17893.0697
-17	17942.5434
-16	18298.6423
-15	18800.6844
-14	19574.9524
-13	20559.4688
-12	23033.5131
-11	24646.1135
-10	26102.1454
-9	29023.9063
-8	31308.8705
-7	34885.3833
-6	37615.3733
-5	44274.0178
-4	48863.3042
-3	60503.3755
-2	67932.281
-1	71936.8385
0	357689.2254
1	71936.8385
2	67932.281
3	60503.3755
4	48863.3042
5	44274.0178
6	37615.3733
7	34885.3833
8	31308.8705
9	29023.9063
10	26102.1454
11	24646.1135
12	23033.5131
13	20559.4688
14	19574.9524
15	18800.6844
16	18298.6423
17	17942.5434
18	17893.0697
19	17808.426
20	17046.4965
21	17501.0747
22	17312.649
23	16818.5492
24	16427.1376
25	16569.1868
26	17364.1591
27	17836.0628
28	17633.7501
29	18919.1424
30	19770.206
31	19216.527
32	18776.0688
33	18643.1837
34	18103.7932
35	17537.331
36	17128.1255
37	16254.323
38	15877.6238
39	15245.411
40	15206.7834
41	14719.0635
42	14345.046
43	14103.9987
44	14064.4375
45	14080.944
46	13345.6328
47	13540.2248
48	13508.5104
49	13609.2094
50	13872.293
51	13519.828
52	13470.879
53	13408.094
54	13991.2403
55	13905.6576
56	14048.691
57	14698.9812
58	14685.2684
59	14568.2923
60	15721.4151
61	15459.1942
62	15340.1476
63	14956.9716
64	15235.3984
65	14907.9541
66	14646.0176
67	14668.2591
68	14262.1309
69	14261.2468
70	13477.6622
71	13710.808
72	13298.5989
73	13365.7716
74	12767.4384
75	12312.0342
76	12921.2386
77	12443.462
78	12776.4416
79	12043.7953
80	12473.5805
81	12500.3733
82	11991.8181
83	12385.0364
84	12186.5427
85	12750.6988
86	12937.481
87	13111.793
88	12980.4004
89	13259.4944
90	13399.1011
91	13670.6757
92	13608.9357
93	13975.7246
94	13761.5639
95	13403.5234
96	13722.0993
97	13442.9281
98	13527.4292
99	13216.2761
100	13349.4316
101	12779.1152
102	12320.5124
103	12275.9766
104	12171.2299
105	12087.8337
106	11762.5036
107	11990.4205
108	11627.42
109	11826.308
110	11666.5092
111	11907.1181
112	11328.0254
113	11389.9441
114	11540.0092
115	11431.5493
116	11392.3655
117	11527.6917
118	11995.0179
119	12097.5356
120	11825.6759
121	11995.0127
122	12363.1137
123	11852.5594
124	12040.1674
125	11624.5196
126	11952.5306
127	12006.0904
128	11857.0799
129	12221.9624
130	11778.2935
131	11853.5274
132	12002.8001
133	11423.7822
134	11895.1666
135	11636.1741
136	11448.7867
137	11336.0735
138	11527.6043
139	11474.4727
140	11957.8311
141	11450.0371
142	11273.6988
143	11467.992
144	11386.6839
145	10981.3452
146	11093.7722
147	11557.7358
148	11201.6478
149	11482.6715
150	11189.7076
151	10944.7515
152	11559.3669
153	11468.9889
154	11822.5925
155	11437.6671
156	11405.2185
157	11405.5878
158	10711.0739
159	11145.8289
160	10906.0953
161	10941.4303
162	10936.8525
163	11019.2674
164	10714.6464
165	11201.2879
166	10756.2653
167	10709.1051
168	10763.4533
169	10656.171
170	10737.2884
171	10545.1996
172	10470.1725
173	10667.8582
174	10882.4414
175	10571.6201
176	10865.0967
177	10768.308
178	10701.9524
179	10730.3928
180	10896.3342
181	10706.828
182	10885.2404
183	10713.6786
184	10931.7618
185	10577.7723
186	11036.9847
187	10882.8425
188	10696.9455
189	11036.9903
190	10887.7458
191	11086.6704
192	10791.1324
193	10693.707
194	10830.1846
195	10694.5825
196	10965.5398
197	11168.9226
198	10671.0948
199	10526.2223
200	5467.1703
