Position	Value
-200	59789.3013
-199	117810.86
-198	119900.1605
-197	119439.5518
-196	120075.7723
-195	120775.0586
-194	120386.6834
-193	121429.5957
-192	120852.9703
-191	120856.4216
-190	122150.4421
-189	122345.6856
-188	122211.9915
-187	122111.7317
-186	122083.8133
-185	120769.9867
-184	120233.7571
-183	120552.549
-182	120853.1317
-181	120031.2466
-180	120818.4315
-179	120364.0482
-178	121213.3973
-177	121537.9441
-176	122367.5171
-175	121620.1801
-174	121763.5023
-173	121607.5018
-172	123772.1182
-171	123106.2899
-170	123731.8035
-169	123922.7651
-168	124897.9259
-167	125204.8294
-166	124212.5821
-165	127135.3419
-164	126162.7616
-163	126138.8548
-162	127029.0026
-161	127143.1211
-160	127366.7465
-159	129512.2046
-158	128236.4014
-157	127954.2375
-156	129709.9963
-155	127739.4009
-154	127541.7398
-153	127131.5118
-152	126356.88
-151	126034.6604
-150	127224.8187
-149	124743.721
-148	123665.8262
-147	124085.4828
-146	123130.6338
-145	123769.6801
-144	124963.9767
-143	124824.8851
-142	125142.4223
-141	125853.557
-140	124787.9256
-139	125553.6027
-138	126688.8912
-137	126782.6474
-136	128446.3379
-135	130176.7881
-134	129825.6208
-133	130061.9026
-132	132031.4886
-131	131520.2383
-130	132127.6836
-129	133817.5438
-128	134100.3341
-127	133451.067
-126	134551.6228
-125	134382.1588
-124	132969.3995
-123	133185.6578
-122	132224.6569
-121	131808.2941
-120	130482.3584
-119	128635.6832
-118	129451.2939
-117	129206.9253
-116	127712.1992
-115	128330.2177
-114	126899.688
-113	127168.5086
-112	128302.9498
-111	127372.8777
-110	129479.7721
-109	128973.8433
-108	129191.1672
-107	129592.0307
-106	130719.2941
-105	130890.7719
-104	131755.0089
-103	133755.5754
-102	134039.0717
-101	134846.9556
-100	135687.4991
-99	138127.467
-98	140311.8702
-97	139326.8157
-96	140752.0428
-95	139904.0681
-94	139893.3995
-93	139658.4043
-92	139954.3607
-91	139725.2905
-90	137232.3333
-89	134850.9881
-88	132642.1326
-87	133492.4849
-86	131769.7095
-85	130598.0445
-84	129543.6581
-83	130542.9458
-82	129239.5628
-81	130885.022
-80	130595.3648
-79	131511.8746
-78	131886.2168
-77	131891.1498
-76	133239.3236
-75	134947.7101
-74	134231.7655
-73	136894.4926
-72	138140.6861
-71	140799.4712
-70	142406.6132
-69	145508.4462
-68	147410.7878
-67	148443.1705
-66	152511.5458
-65	153199.1077
-64	154279.5788
-63	155782.9253
-62	153861.7659
-61	154693.6162
-60	153066.6566
-59	148269.2775
-58	145778.4519
-57	142596.8019
-56	139046.8433
-55	135405.899
-54	137111.8331
-53	134615.4829
-52	133870.8745
-51	134762.0409
-50	135308.1851
-49	133528.5466
-48	134765.8804
-47	133973.9029
-46	134429.613
-45	136645.1508
-44	135324.0418
-43	137089.2989
-42	138417.929
-41	140703.5545
-40	143553.2491
-39	146855.4301
-38	149048.9481
-37	151347.7493
-36	154685.4962
-35	159440.4424
-34	163100.898
-33	170171.6853
-32	175026.5602
-31	179653.8979
-30	182504.7045
-29	170598.1553
-28	155712.5549
-27	146631.6899
-26	141500.6393
-25	140663.9476
-24	144113.5638
-23	147007.0232
-22	147825.6154
-21	153904.0394
-20	152250.5138
-19	156460.9542
-18	160453.5071
-17	162528.3897
-16	167375.1491
-15	171839.1559
-14	176260.7644
-13	185913.5584
-12	201181.4259
-11	215165.1094
-10	224218.3604
-9	236654.3214
-8	247939.8897
-7	275769.9818
-6	293241.6159
-5	341074.7977
-4	357911.1695
-3	390613.9123
-2	445150.9644
-1	434932.8676
0	2805916.2436
1	434932.8676
2	445150.9644
3	390613.9123
4	357911.1695
5	341074.7977
6	293241.6159
7	275769.9818
8	247939.8897
9	236654.3214
10	224218.3604
11	215165.1094
12	201181.4259
13	185913.5584
14	176260.7644
15	171839.1559
16	167375.1491
17	162528.3897
18	160453.5071
19	156460.9542
20	152250.5138
21	153904.0394
22	147825.6154
23	147007.0232
24	144113.5638
25	140663.9476
26	141500.6393
27	146631.6899
28	155712.5549
29	170598.1553
30	182504.7045
31	179653.8979
32	175026.5602
33	170171.6853
34	163100.898
35	159440.4424
36	154685.4962
37	151347.7493
38	149048.9481
39	146855.4301
40	143553.2491
41	140703.5545
42	138417.929
43	137089.2989
44	135324.0418
45	136645.1508
46	134429.613
47	133973.9029
48	134765.8804
49	133528.5466
50	135308.1851
51	134762.0409
52	133870.8745
53	134615.4829
54	137111.8331
55	135405.899
56	139046.8433
57	142596.8019
58	145778.4519
59	148269.2775
60	153066.6566
61	154693.6162
62	153861.7659
63	155782.9253
64	154279.5788
65	153199.1077
66	152511.5458
67	148443.1705
68	147410.7878
69	145508.4462
70	142406.6132
71	140799.4712
72	138140.6861
73	136894.4926
74	134231.7655
75	134947.7101
76	133239.3236
77	131891.1498
78	131886.2168
79	131511.8746
80	130595.3648
81	130885.022
82	129239.5628
83	130542.9458
84	129543.6581
85	130598.0445
86	131769.7095
87	133492.4849
88	132642.1326
89	134850.9881
90	137232.3333
91	139725.2905
92	139954.3607
93	139658.4043
94	139893.3995
95	139904.0681
96	140752.0428
97	139326.8157
98	140311.8702
99	138127.467
100	135687.4991
101	134846.9556
102	134039.0717
103	133755.5754
104	131755.0089
105	130890.7719
106	130719.2941
107	129592.0307
108	129191.1672
109	128973.8433
110	129479.7721
111	127372.8777
112	128302.9498
113	127168.5086
114	126899.688
115	128330.2177
116	127712.1992
117	129206.9253
118	129451.2939
119	128635.6832
120	130482.3584
121	131808.2941
122	132224.6569
123	133185.6578
124	132969.3995
125	134382.1588
126	134551.6228
127	133451.067
128	134100.3341
129	133817.5438
130	132127.6836
131	131520.2383
132	132031.4886
133	130061.9026
134	129825.6208
135	130176.7881
136	128446.3379
137	126782.6474
138	126688.8912
139	125553.6027
140	124787.9256
141	125853.557
142	125142.4223
143	124824.8851
144	124963.9767
145	123769.6801
146	123130.6338
147	124085.4828
148	123665.8262
149	124743.721
150	127224.8187
151	126034.6604
152	126356.88
153	127131.5118
154	127541.7398
155	127739.4009
156	129709.9963
157	127954.2375
158	128236.4014
159	129512.2046
160	127366.7465
161	127143.1211
162	127029.0026
163	126138.8548
164	126162.7616
165	127135.3419
166	124212.5821
167	125204.8294
168	124897.9259
169	123922.7651
170	123731.8035
171	123106.2899
172	123772.1182
173	121607.5018
174	121763.5023
175	121620.1801
176	122367.5171
177	121537.9441
178	121213.3973
179	120364.0482
180	120818.4315
181	120031.2466
182	120853.1317
183	120552.549
184	120233.7571
185	120769.9867
186	122083.8133
187	122111.7317
188	122211.9915
189	122345.6856
190	122150.4421
191	120856.4216
192	120852.9703
193	121429.5957
194	120386.6834
195	120775.0586
196	120075.7723
197	119439.5518
198	119900.1605
199	117810.86
200	59789.3013
