Position	Value
-200	228846.7747
-199	460379.2608
-198	459192.7187
-197	459876.9088
-196	463551.8626
-195	464901.4059
-194	467015.9387
-193	468155.0265
-192	470274.4258
-191	468603.1932
-190	471586.124
-189	473025.8732
-188	472379.4124
-187	469906.8336
-186	471391.173
-185	471081.8022
-184	465699.2111
-183	468458.0549
-182	466357.8103
-181	468677.589
-180	467556.1578
-179	466655.549
-178	467474.1287
-177	467712.4974
-176	468344.6928
-175	468743.3408
-174	470095.0276
-173	472105.6517
-172	471898.4926
-171	475461.9435
-170	477827.5037
-169	478213.0952
-168	480434.909
-167	483514.988
-166	482911.7008
-165	488521.3091
-164	487491.1821
-163	489754.9671
-162	496680.0454
-161	495069.4952
-160	495862.8416
-159	502465.907
-158	496111.6426
-157	498467.0311
-156	499634.8109
-155	496859.626
-154	493345.3457
-153	492878.304
-152	492456.039
-151	490663.4643
-150	488106.9299
-149	485998.84
-148	481198.7411
-147	486798.968
-146	482311.8515
-145	479815.6823
-144	484865.7616
-143	483417.8593
-142	483556.2694
-141	486813.5201
-140	487550.2076
-139	490335.2914
-138	494305.0436
-137	496633.1379
-136	499043.9255
-135	505769.6094
-134	507068.2636
-133	508979.4348
-132	515038.21
-131	516548.7875
-130	521779.6055
-129	524537.9918
-128	525394.5538
-127	525419.3782
-126	525492.1065
-125	524532.2445
-124	524058.3354
-123	523448.265
-122	520497.2492
-121	513132.2752
-120	512267.9473
-119	508520.7868
-118	504117.6963
-117	503753.8103
-116	498310.4984
-115	498898.1834
-114	497742.1964
-113	496374.3291
-112	496576.676
-111	498073.7397
-110	501186.3702
-109	500099.0379
-108	507668.9924
-107	507571.0621
-106	510920.354
-105	516118.7855
-104	521337.0888
-103	527932.7611
-102	535367.5879
-101	538100.0953
-100	541272.2302
-99	549235.5355
-98	554795.7304
-97	556784.6396
-96	558428.874
-95	561060.4326
-94	559520.2562
-93	564041.7514
-92	557677.7796
-91	552533.9736
-90	546958.58
-89	540413.1343
-88	528850.6823
-87	525633.5379
-86	518920.4062
-85	511529.3153
-84	510520.6913
-83	508523.7663
-82	507544.7267
-81	507290.9068
-80	508248.2205
-79	510363.9845
-78	514819.0755
-77	515180.4891
-76	518812.4247
-75	524938.0952
-74	528449.5596
-73	533508.6699
-72	545622.5081
-71	555009.8837
-70	560471.8801
-69	574096.7246
-68	579177.1425
-67	587349.7784
-66	603400.2996
-65	605527.6243
-64	613744.089
-63	621513.1632
-62	616068.5034
-61	615433.1101
-60	604666.94
-59	592784.9812
-58	576159.6936
-57	559436.5939
-56	544059.8439
-55	530460.6138
-54	528311.183
-53	520711.6776
-52	516237.5479
-51	518941.9575
-50	516795.1214
-49	515788.6642
-48	519542.7864
-47	517059.3894
-46	520494.4477
-45	527389.54
-44	527452.206
-43	535174.4545
-42	546274.119
-41	555104.7612
-40	565133.5538
-39	578747.1894
-38	586170.5968
-37	600357.3591
-36	618876.4797
-35	636668.4846
-34	658842.6602
-33	689961.2296
-32	705865.962
-31	726250.7135
-30	731929.1335
-29	697939.3413
-28	641375.8839
-27	596440.7019
-26	564395.6461
-25	558709.783
-24	566931.498
-23	559755.9453
-22	548559.028
-21	562140.1757
-20	562839.8901
-19	569580.1793
-18	586764.7147
-17	588100.1651
-16	597035.6095
-15	605502.6425
-14	616243.7017
-13	651189.4317
-12	698206.4494
-11	723099.0244
-10	745618.6325
-9	776461.9056
-8	795443.4406
-7	861719.6678
-6	884669.5176
-5	1009058.7964
-4	1010797.8267
-3	1049098.3339
-2	1090595.8928
-1	1078655.1527
0	6067183.4929
1	1078655.1527
2	1090595.8928
3	1049098.3339
4	1010797.8267
5	1009058.7964
6	884669.5176
7	861719.6678
8	795443.4406
9	776461.9056
10	745618.6325
11	723099.0244
12	698206.4494
13	651189.4317
14	616243.7017
15	605502.6425
16	597035.6095
17	588100.1651
18	586764.7147
19	569580.1793
20	562839.8901
21	562140.1757
22	548559.028
23	559755.9453
24	566931.498
25	558709.783
26	564395.6461
27	596440.7019
28	641375.8839
29	697939.3413
30	731929.1335
31	726250.7135
32	705865.962
33	689961.2296
34	658842.6602
35	636668.4846
36	618876.4797
37	600357.3591
38	586170.5968
39	578747.1894
40	565133.5538
41	555104.7612
42	546274.119
43	535174.4545
44	527452.206
45	527389.54
46	520494.4477
47	517059.3894
48	519542.7864
49	515788.6642
50	516795.1214
51	518941.9575
52	516237.5479
53	520711.6776
54	528311.183
55	530460.6138
56	544059.8439
57	559436.5939
58	576159.6936
59	592784.9812
60	604666.94
61	615433.1101
62	616068.5034
63	621513.1632
64	613744.089
65	605527.6243
66	603400.2996
67	587349.7784
68	579177.1425
69	574096.7246
70	560471.8801
71	555009.8837
72	545622.5081
73	533508.6699
74	528449.5596
75	524938.0952
76	518812.4247
77	515180.4891
78	514819.0755
79	510363.9845
80	508248.2205
81	507290.9068
82	507544.7267
83	508523.7663
84	510520.6913
85	511529.3153
86	518920.4062
87	525633.5379
88	528850.6823
89	540413.1343
90	546958.58
91	552533.9736
92	557677.7796
93	564041.7514
94	559520.2562
95	561060.4326
96	558428.874
97	556784.6396
98	554795.7304
99	549235.5355
100	541272.2302
101	538100.0953
102	535367.5879
103	527932.7611
104	521337.0888
105	516118.7855
106	510920.354
107	507571.0621
108	507668.9924
109	500099.0379
110	501186.3702
111	498073.7397
112	496576.676
113	496374.3291
114	497742.1964
115	498898.1834
116	498310.4984
117	503753.8103
118	504117.6963
119	508520.7868
120	512267.9473
121	513132.2752
122	520497.2492
123	523448.265
124	524058.3354
125	524532.2445
126	525492.1065
127	525419.3782
128	525394.5538
129	524537.9918
130	521779.6055
131	516548.7875
132	515038.21
133	508979.4348
134	507068.2636
135	505769.6094
136	499043.9255
137	496633.1379
138	494305.0436
139	490335.2914
140	487550.2076
141	486813.5201
142	483556.2694
143	483417.8593
144	484865.7616
145	479815.6823
146	482311.8515
147	486798.968
148	481198.7411
149	485998.84
150	488106.9299
151	490663.4643
152	492456.039
153	492878.304
154	493345.3457
155	496859.626
156	499634.8109
157	498467.0311
158	496111.6426
159	502465.907
160	495862.8416
161	495069.4952
162	496680.0454
163	489754.9671
164	487491.1821
165	488521.3091
166	482911.7008
167	483514.988
168	480434.909
169	478213.0952
170	477827.5037
171	475461.9435
172	471898.4926
173	472105.6517
174	470095.0276
175	468743.3408
176	468344.6928
177	467712.4974
178	467474.1287
179	466655.549
180	467556.1578
181	468677.589
182	466357.8103
183	468458.0549
184	465699.2111
185	471081.8022
186	471391.173
187	469906.8336
188	472379.4124
189	473025.8732
190	471586.124
191	468603.1932
192	470274.4258
193	468155.0265
194	467015.9387
195	464901.4059
196	463551.8626
197	459876.9088
198	459192.7187
199	460379.2608
200	228846.7747
