Position	Value
-200	126846.1602
-199	253898.307
-198	254660.0583
-197	254290.3578
-196	253793.1564
-195	254740.987
-194	253948.7036
-193	254138.4469
-192	253690.7399
-191	253765.1405
-190	252577.0917
-189	251995.1094
-188	250679.895
-187	251279.3922
-186	252245.4893
-185	253332.4321
-184	253689.2191
-183	254062.7586
-182	253085.2468
-181	253126.2201
-180	254066.4256
-179	254748.4092
-178	254815.2518
-177	255615.1465
-176	256213.0494
-175	256770.6649
-174	257200.5722
-173	256995.4849
-172	256197.8346
-171	256962.3635
-170	257462.9077
-169	257720.258
-168	259645.9294
-167	259387.5909
-166	259475.7996
-165	261593.2578
-164	262766.5525
-163	263851.1489
-162	265029.1026
-161	264607.0181
-160	264708.1888
-159	266185.1087
-158	265104.2286
-157	264740.4143
-156	266204.5492
-155	264542.9365
-154	263735.0997
-153	265554.79
-152	265338.1051
-151	265568.447
-150	267070.0294
-149	267466.4183
-148	268412.9957
-147	270124.0536
-146	269764.4847
-145	269411.8497
-144	270227.0176
-143	270552.9748
-142	269944.8014
-141	271672.5977
-140	271214.5066
-139	272366.7916
-138	272664.1837
-137	271733.7682
-136	271218.7263
-135	272849.8032
-134	271909.73
-133	272180.1769
-132	272991.9385
-131	273832.8336
-130	274270.1042
-129	273245.9729
-128	272082.433
-127	271657.7291
-126	272850.6451
-125	272516.6701
-124	272399.1836
-123	274511.9292
-122	274948.5372
-121	275943.9557
-120	277748.0141
-119	277373.3701
-118	278996.1182
-117	279329.7042
-116	279207.3861
-115	279521.6269
-114	281147.6784
-113	280579.3406
-112	280861.0759
-111	281581.4058
-110	280968.0469
-109	281533.7873
-108	283085.2336
-107	282415.0348
-106	283348.6645
-105	284749.63
-104	284368.1064
-103	284461.2668
-102	284818.2956
-101	283428.2489
-100	283730.817
-99	285685.8005
-98	285484.3855
-97	285746.1786
-96	287484.4634
-95	286944.1099
-94	287500.5254
-93	289003.6907
-92	289198.2296
-91	290344.398
-90	292045.1924
-89	292730.1318
-88	293975.0455
-87	296004.0404
-86	295291.1368
-85	295838.5974
-84	297826.5157
-83	297430.2726
-82	298508.5295
-81	301963.1461
-80	302475.7324
-79	304144.8557
-78	305866.315
-77	305289.6712
-76	304902.7869
-75	305890.0015
-74	305193.9597
-73	305785.1847
-72	306177.011
-71	306076.7228
-70	305055.4403
-69	307418.4507
-68	306678.3946
-67	307612.8483
-66	310167.5217
-65	310681.0386
-64	312578.456
-63	314884.9658
-62	315607.0883
-61	317396.3275
-60	320057.6861
-59	320816.6688
-58	322151.7032
-57	324200.8271
-56	323239.0789
-55	325190.5204
-54	327294.2242
-53	326286.3846
-52	327441.4631
-51	329894.7321
-50	330369.0091
-49	330673.6887
-48	333661.0189
-47	336089.8237
-46	335997.2426
-45	338119.7536
-44	339244.1321
-43	340436.6293
-42	344172.1217
-41	345845.507
-40	347935.772
-39	350171.5933
-38	352418.7898
-37	356137.0128
-36	359928.0245
-35	362485.6021
-34	366831.0731
-33	374429.4911
-32	377619.0988
-31	378268.3973
-30	377429.9291
-29	371270.6775
-28	366266.6087
-27	362270.2518
-26	356526.1759
-25	353279.2324
-24	347928.0268
-23	339144.5098
-22	339522.0814
-21	345754.4207
-20	350660.2165
-19	358785.7184
-18	369914.2674
-17	379529.9018
-16	393439.8437
-15	410269.0812
-14	430284.4642
-13	450227.1509
-12	477258.1411
-11	505102.0601
-10	536702.0804
-9	577117.6699
-8	620985.5891
-7	674780.4482
-6	737581.0257
-5	809859.5356
-4	901639.6165
-3	1000011.642
-2	1104640.9084
-1	1283674.6876
0	2274806.198
1	1283674.6876
2	1104640.9084
3	1000011.642
4	901639.6165
5	809859.5356
6	737581.0257
7	674780.4482
8	620985.5891
9	577117.6699
10	536702.0804
11	505102.0601
12	477258.1411
13	450227.1509
14	430284.4642
15	410269.0812
16	393439.8437
17	379529.9018
18	369914.2674
19	358785.7184
20	350660.2165
21	345754.4207
22	339522.0814
23	339144.5098
24	347928.0268
25	353279.2324
26	356526.1759
27	362270.2518
28	366266.6087
29	371270.6775
30	377429.9291
31	378268.3973
32	377619.0988
33	374429.4911
34	366831.0731
35	362485.6021
36	359928.0245
37	356137.0128
38	352418.7898
39	350171.5933
40	347935.772
41	345845.507
42	344172.1217
43	340436.6293
44	339244.1321
45	338119.7536
46	335997.2426
47	336089.8237
48	333661.0189
49	330673.6887
50	330369.0091
51	329894.7321
52	327441.4631
53	326286.3846
54	327294.2242
55	325190.5204
56	323239.0789
57	324200.8271
58	322151.7032
59	320816.6688
60	320057.6861
61	317396.3275
62	315607.0883
63	314884.9658
64	312578.456
65	310681.0386
66	310167.5217
67	307612.8483
68	306678.3946
69	307418.4507
70	305055.4403
71	306076.7228
72	306177.011
73	305785.1847
74	305193.9597
75	305890.0015
76	304902.7869
77	305289.6712
78	305866.315
79	304144.8557
80	302475.7324
81	301963.1461
82	298508.5295
83	297430.2726
84	297826.5157
85	295838.5974
86	295291.1368
87	296004.0404
88	293975.0455
89	292730.1318
90	292045.1924
91	290344.398
92	289198.2296
93	289003.6907
94	287500.5254
95	286944.1099
96	287484.4634
97	285746.1786
98	285484.3855
99	285685.8005
100	283730.817
101	283428.2489
102	284818.2956
103	284461.2668
104	284368.1064
105	284749.63
106	283348.6645
107	282415.0348
108	283085.2336
109	281533.7873
110	280968.0469
111	281581.4058
112	280861.0759
113	280579.3406
114	281147.6784
115	279521.6269
116	279207.3861
117	279329.7042
118	278996.1182
119	277373.3701
120	277748.0141
121	275943.9557
122	274948.5372
123	274511.9292
124	272399.1836
125	272516.6701
126	272850.6451
127	271657.7291
128	272082.433
129	273245.9729
130	274270.1042
131	273832.8336
132	272991.9385
133	272180.1769
134	271909.73
135	272849.8032
136	271218.7263
137	271733.7682
138	272664.1837
139	272366.7916
140	271214.5066
141	271672.5977
142	269944.8014
143	270552.9748
144	270227.0176
145	269411.8497
146	269764.4847
147	270124.0536
148	268412.9957
149	267466.4183
150	267070.0294
151	265568.447
152	265338.1051
153	265554.79
154	263735.0997
155	264542.9365
156	266204.5492
157	264740.4143
158	265104.2286
159	266185.1087
160	264708.1888
161	264607.0181
162	265029.1026
163	263851.1489
164	262766.5525
165	261593.2578
166	259475.7996
167	259387.5909
168	259645.9294
169	257720.258
170	257462.9077
171	256962.3635
172	256197.8346
173	256995.4849
174	257200.5722
175	256770.6649
176	256213.0494
177	255615.1465
178	254815.2518
179	254748.4092
180	254066.4256
181	253126.2201
182	253085.2468
183	254062.7586
184	253689.2191
185	253332.4321
186	252245.4893
187	251279.3922
188	250679.895
189	251995.1094
190	252577.0917
191	253765.1405
192	253690.7399
193	254138.4469
194	253948.7036
195	254740.987
196	253793.1564
197	254290.3578
198	254660.0583
199	253898.307
200	126846.1602
