Position	Value
-200	1559.7162
-199	3122.3255
-198	3216.9336
-197	3250.4824
-196	3316.0333
-195	3317.2665
-194	3274.7136
-193	3499.4263
-192	3524.917
-191	3374.5398
-190	3440.0214
-189	3453.8915
-188	3320.2346
-187	3356.8655
-186	3566.7472
-185	3540.1274
-184	3617.3304
-183	3420.6043
-182	3440.567
-181	3442.0891
-180	3413.7513
-179	3399.0911
-178	3513.0953
-177	3330.4384
-176	3430.5868
-175	3291.7748
-174	3318.147
-173	3342.5593
-172	3521.3502
-171	3400.1577
-170	3539.811
-169	3528.1172
-168	3505.0123
-167	3635.9451
-166	3659.3564
-165	3676.5111
-164	3693.2195
-163	3667.9661
-162	3724.9048
-161	3888.4279
-160	3775.6783
-159	3936.8151
-158	3838.0355
-157	3709.9466
-156	3929.8846
-155	3826.8844
-154	3775.4803
-153	3872.9139
-152	3903.7234
-151	3547.1784
-150	3652.3129
-149	3681.5326
-148	3318.3869
-147	3666.0664
-146	3492.0192
-145	3464.7857
-144	3657.7578
-143	3608.7007
-142	3699.9725
-141	3659.4713
-140	3729.9213
-139	3928.2458
-138	3839.5873
-137	3792.3704
-136	3725.7082
-135	4057.8299
-134	4091.7973
-133	4142.252
-132	4051.2966
-131	4102.7749
-130	4169.4144
-129	4196.4776
-128	4230.9612
-127	4201.4982
-126	4304.1505
-125	4302.0432
-124	4171.7251
-123	4196.2415
-122	4286.1276
-121	4035.0121
-120	3855.8269
-119	4038.1928
-118	3673.4544
-117	3736.122
-116	3674.1643
-115	3450.8056
-114	3438.9374
-113	3428.1051
-112	3568.6986
-111	3939.4931
-110	3755.5496
-109	4071.7269
-108	3868.5571
-107	4058.964
-106	4000.2671
-105	4180.5419
-104	4232.9598
-103	4386.5376
-102	4351.256
-101	4562.1882
-100	4551.9553
-99	4732.3182
-98	5022.7804
-97	4905.4094
-96	5142.7183
-95	5467.2926
-94	5242.9207
-93	5367.0272
-92	5353.2904
-91	5169.3607
-90	4777.0752
-89	4783.6609
-88	4393.5136
-87	4467.514
-86	4362.9195
-85	4113.2986
-84	3778.4714
-83	3841.9854
-82	3945.662
-81	3830.5024
-80	3856.9094
-79	3836.6684
-78	4004.464
-77	4126.9213
-76	4219.469
-75	4225.3292
-74	4465.949
-73	4607.2214
-72	4760.1792
-71	4995.7518
-70	5211.6165
-69	5765.5316
-68	5877.8174
-67	6162.1707
-66	6474.9162
-65	6556.2135
-64	6458.3096
-63	6717.1527
-62	6916.9972
-61	7601.2776
-60	7084.2779
-59	6590.5422
-58	6345.5554
-57	5784.5404
-56	5261.882
-55	5026.1739
-54	4713.631
-53	4470.6347
-52	4677.2118
-51	4442.6638
-50	4419.0547
-49	4378.8737
-48	4543.9058
-47	4536.1608
-46	4465.8317
-45	4881.2518
-44	4717.5419
-43	4891.6666
-42	5139.667
-41	5370.2401
-40	5949.3997
-39	5764.368
-38	6739.3493
-37	6718.9421
-36	7717.9751
-35	8515.2649
-34	8642.0757
-33	9239.6318
-32	9669.2901
-31	9645.9113
-30	9782.2821
-29	9530.5288
-28	8175.5679
-27	8006.806
-26	7133.1479
-25	6531.1764
-24	6466.683
-23	6308.9689
-22	6753.2067
-21	6869.2485
-20	6649.7393
-19	6786.3597
-18	6962.5519
-17	7108.9206
-16	7196.2058
-15	7207.6946
-14	7496.6743
-13	7652.2801
-12	8573.3889
-11	9219.6243
-10	9812.5417
-9	11019.43
-8	11496.8746
-7	13155.9004
-6	14064.2711
-5	17137.7676
-4	18838.6809
-3	21792.8274
-2	23698.494
-1	26690.4944
0	131822.5039
1	26690.4944
2	23698.494
3	21792.8274
4	18838.6809
5	17137.7676
6	14064.2711
7	13155.9004
8	11496.8746
9	11019.43
10	9812.5417
11	9219.6243
12	8573.3889
13	7652.2801
14	7496.6743
15	7207.6946
16	7196.2058
17	7108.9206
18	6962.5519
19	6786.3597
20	6649.7393
21	6869.2485
22	6753.2067
23	6308.9689
24	6466.683
25	6531.1764
26	7133.1479
27	8006.806
28	8175.5679
29	9530.5288
30	9782.2821
31	9645.9113
32	9669.2901
33	9239.6318
34	8642.0757
35	8515.2649
36	7717.9751
37	6718.9421
38	6739.3493
39	5764.368
40	5949.3997
41	5370.2401
42	5139.667
43	4891.6666
44	4717.5419
45	4881.2518
46	4465.8317
47	4536.1608
48	4543.9058
49	4378.8737
50	4419.0547
51	4442.6638
52	4677.2118
53	4470.6347
54	4713.631
55	5026.1739
56	5261.882
57	5784.5404
58	6345.5554
59	6590.5422
60	7084.2779
61	7601.2776
62	6916.9972
63	6717.1527
64	6458.3096
65	6556.2135
66	6474.9162
67	6162.1707
68	5877.8174
69	5765.5316
70	5211.6165
71	4995.7518
72	4760.1792
73	4607.2214
74	4465.949
75	4225.3292
76	4219.469
77	4126.9213
78	4004.464
79	3836.6684
80	3856.9094
81	3830.5024
82	3945.662
83	3841.9854
84	3778.4714
85	4113.2986
86	4362.9195
87	4467.514
88	4393.5136
89	4783.6609
90	4777.0752
91	5169.3607
92	5353.2904
93	5367.0272
94	5242.9207
95	5467.2926
96	5142.7183
97	4905.4094
98	5022.7804
99	4732.3182
100	4551.9553
101	4562.1882
102	4351.256
103	4386.5376
104	4232.9598
105	4180.5419
106	4000.2671
107	4058.964
108	3868.5571
109	4071.7269
110	3755.5496
111	3939.4931
112	3568.6986
113	3428.1051
114	3438.9374
115	3450.8056
116	3674.1643
117	3736.122
118	3673.4544
119	4038.1928
120	3855.8269
121	4035.0121
122	4286.1276
123	4196.2415
124	4171.7251
125	4302.0432
126	4304.1505
127	4201.4982
128	4230.9612
129	4196.4776
130	4169.4144
131	4102.7749
132	4051.2966
133	4142.252
134	4091.7973
135	4057.8299
136	3725.7082
137	3792.3704
138	3839.5873
139	3928.2458
140	3729.9213
141	3659.4713
142	3699.9725
143	3608.7007
144	3657.7578
145	3464.7857
146	3492.0192
147	3666.0664
148	3318.3869
149	3681.5326
150	3652.3129
151	3547.1784
152	3903.7234
153	3872.9139
154	3775.4803
155	3826.8844
156	3929.8846
157	3709.9466
158	3838.0355
159	3936.8151
160	3775.6783
161	3888.4279
162	3724.9048
163	3667.9661
164	3693.2195
165	3676.5111
166	3659.3564
167	3635.9451
168	3505.0123
169	3528.1172
170	3539.811
171	3400.1577
172	3521.3502
173	3342.5593
174	3318.147
175	3291.7748
176	3430.5868
177	3330.4384
178	3513.0953
179	3399.0911
180	3413.7513
181	3442.0891
182	3440.567
183	3420.6043
184	3617.3304
185	3540.1274
186	3566.7472
187	3356.8655
188	3320.2346
189	3453.8915
190	3440.0214
191	3374.5398
192	3524.917
193	3499.4263
194	3274.7136
195	3317.2665
196	3316.0333
197	3250.4824
198	3216.9336
199	3122.3255
200	1559.7162
