Position	Value
-200	388.9889
-199	735.8755
-198	707.622
-197	752.9849
-196	786.2414
-195	797.568
-194	746.0634
-193	907.5017
-192	858.1525
-191	832.3599
-190	876.7678
-189	951.3125
-188	843.1583
-187	834.5805
-186	816.4695
-185	885.6814
-184	908.4683
-183	853.4497
-182	773.9488
-181	854.8182
-180	902.6938
-179	903.2641
-178	912.0846
-177	840.3887
-176	813.3373
-175	822.2972
-174	797.527
-173	846.7127
-172	887.2462
-171	788.4776
-170	823.2664
-169	857.0978
-168	835.8573
-167	812.4073
-166	889.918
-165	937.7191
-164	871.6656
-163	851.3827
-162	916.6507
-161	995.3131
-160	941.1195
-159	972.0599
-158	942.3621
-157	971.5487
-156	968.3363
-155	936.7277
-154	1011.5833
-153	980.0096
-152	969.3977
-151	905.0399
-150	915.592
-149	951.4371
-148	904.6415
-147	991.9511
-146	820.9906
-145	913.5665
-144	885.2606
-143	948.5012
-142	911.7344
-141	893.0947
-140	917.1071
-139	996.1892
-138	852.741
-137	946.127
-136	934.5889
-135	978.8906
-134	1070.1307
-133	1009.3641
-132	964.0129
-131	990.7629
-130	1134.4303
-129	1038.6497
-128	1089.2895
-127	1119.0374
-126	1046.883
-125	1125.1094
-124	1047.9953
-123	1125.0791
-122	1190.358
-121	1097.964
-120	1015.7617
-119	1053.5549
-118	946.6788
-117	963.6973
-116	968.3772
-115	969.8575
-114	901.7615
-113	894.2081
-112	879.0384
-111	1037.8198
-110	943.3273
-109	961.3357
-108	945.8422
-107	1068.0016
-106	948.8232
-105	1008.328
-104	1035.6098
-103	1063.5566
-102	1191.637
-101	1170.5668
-100	1233.3676
-99	1373.259
-98	1354.1261
-97	1313.481
-96	1298.7239
-95	1538.5864
-94	1480.9178
-93	1559.9117
-92	1561.6374
-91	1322.0602
-90	1181.8043
-89	1292.1049
-88	1128.3189
-87	1105.7406
-86	1135.4372
-85	1065.9742
-84	913.9336
-83	992.3097
-82	900.3222
-81	950.6814
-80	947.2319
-79	917.3331
-78	976.6229
-77	1019.8574
-76	1049.5177
-75	1023.6065
-74	1029.5391
-73	1205.406
-72	1151.5085
-71	1381.7104
-70	1445.5307
-69	1576.3592
-68	1592.1603
-67	1771.1078
-66	2000.2122
-65	1783.5706
-64	1839.9692
-63	1900.4355
-62	1985.0483
-61	2112.486
-60	1979.8813
-59	1844.7638
-58	1759.6218
-57	1525.3236
-56	1383.476
-55	1355.4476
-54	1178.9926
-53	1107.8371
-52	1127.8101
-51	1118.3697
-50	1130.6442
-49	1055.9815
-48	1218.2949
-47	1097.3731
-46	1111.6886
-45	1172.7535
-44	1189.9344
-43	1212.44
-42	1395.489
-41	1430.4783
-40	1559.0305
-39	1543.8234
-38	1903.8649
-37	1895.8558
-36	2293.4551
-35	2702.2146
-34	2652.6627
-33	2781.5841
-32	2842.1658
-31	2820.9833
-30	2947.556
-29	3083.1726
-28	2473.9372
-27	2248.3968
-26	2010.2082
-25	1839.8871
-24	1603.2772
-23	1664.8011
-22	1714.7786
-21	1642.5042
-20	1593.043
-19	1667.4517
-18	1754.4288
-17	1834.8681
-16	1869.1655
-15	1810.5286
-14	1980.2056
-13	1993.4838
-12	2291.6318
-11	2598.3538
-10	2697.3438
-9	3219.9241
-8	3349.2618
-7	3979.673
-6	4430.7846
-5	5485.0136
-4	6219.8191
-3	7199.9205
-2	8328.3947
-1	9471.778
0	55981.6025
1	9471.778
2	8328.3947
3	7199.9205
4	6219.8191
5	5485.0136
6	4430.7846
7	3979.673
8	3349.2618
9	3219.9241
10	2697.3438
11	2598.3538
12	2291.6318
13	1993.4838
14	1980.2056
15	1810.5286
16	1869.1655
17	1834.8681
18	1754.4288
19	1667.4517
20	1593.043
21	1642.5042
22	1714.7786
23	1664.8011
24	1603.2772
25	1839.8871
26	2010.2082
27	2248.3968
28	2473.9372
29	3083.1726
30	2947.556
31	2820.9833
32	2842.1658
33	2781.5841
34	2652.6627
35	2702.2146
36	2293.4551
37	1895.8558
38	1903.8649
39	1543.8234
40	1559.0305
41	1430.4783
42	1395.489
43	1212.44
44	1189.9344
45	1172.7535
46	1111.6886
47	1097.3731
48	1218.2949
49	1055.9815
50	1130.6442
51	1118.3697
52	1127.8101
53	1107.8371
54	1178.9926
55	1355.4476
56	1383.476
57	1525.3236
58	1759.6218
59	1844.7638
60	1979.8813
61	2112.486
62	1985.0483
63	1900.4355
64	1839.9692
65	1783.5706
66	2000.2122
67	1771.1078
68	1592.1603
69	1576.3592
70	1445.5307
71	1381.7104
72	1151.5085
73	1205.406
74	1029.5391
75	1023.6065
76	1049.5177
77	1019.8574
78	976.6229
79	917.3331
80	947.2319
81	950.6814
82	900.3222
83	992.3097
84	913.9336
85	1065.9742
86	1135.4372
87	1105.7406
88	1128.3189
89	1292.1049
90	1181.8043
91	1322.0602
92	1561.6374
93	1559.9117
94	1480.9178
95	1538.5864
96	1298.7239
97	1313.481
98	1354.1261
99	1373.259
100	1233.3676
101	1170.5668
102	1191.637
103	1063.5566
104	1035.6098
105	1008.328
106	948.8232
107	1068.0016
108	945.8422
109	961.3357
110	943.3273
111	1037.8198
112	879.0384
113	894.2081
114	901.7615
115	969.8575
116	968.3772
117	963.6973
118	946.6788
119	1053.5549
120	1015.7617
121	1097.964
122	1190.358
123	1125.0791
124	1047.9953
125	1125.1094
126	1046.883
127	1119.0374
128	1089.2895
129	1038.6497
130	1134.4303
131	990.7629
132	964.0129
133	1009.3641
134	1070.1307
135	978.8906
136	934.5889
137	946.127
138	852.741
139	996.1892
140	917.1071
141	893.0947
142	911.7344
143	948.5012
144	885.2606
145	913.5665
146	820.9906
147	991.9511
148	904.6415
149	951.4371
150	915.592
151	905.0399
152	969.3977
153	980.0096
154	1011.5833
155	936.7277
156	968.3363
157	971.5487
158	942.3621
159	972.0599
160	941.1195
161	995.3131
162	916.6507
163	851.3827
164	871.6656
165	937.7191
166	889.918
167	812.4073
168	835.8573
169	857.0978
170	823.2664
171	788.4776
172	887.2462
173	846.7127
174	797.527
175	822.2972
176	813.3373
177	840.3887
178	912.0846
179	903.2641
180	902.6938
181	854.8182
182	773.9488
183	853.4497
184	908.4683
185	885.6814
186	816.4695
187	834.5805
188	843.1583
189	951.3125
190	876.7678
191	832.3599
192	858.1525
193	907.5017
194	746.0634
195	797.568
196	786.2414
197	752.9849
198	707.622
199	735.8755
200	388.9889
