Position	Value
-200	76.9246
-199	135.107
-198	144.6833
-197	135.6764
-196	152.4037
-195	128.648
-194	133.5213
-193	142.7956
-192	146.6998
-191	132.8349
-190	149.4682
-189	142.0567
-188	139.7172
-187	141.4112
-186	132.2395
-185	130.6231
-184	143.8659
-183	126.5552
-182	129.0513
-181	141.2913
-180	140.5325
-179	110.57
-178	136.3149
-177	148.6993
-176	159.7362
-175	135.7822
-174	164.3666
-173	136.9957
-172	146.7208
-171	160.5203
-170	147.4621
-169	135.2356
-168	126.7721
-167	123.2455
-166	131.9595
-165	156.2103
-164	150.328
-163	147.8331
-162	133.2874
-161	160.248
-160	137.7502
-159	155.2105
-158	169.7274
-157	135.0847
-156	156.8779
-155	137.6746
-154	173.3958
-153	177.595
-152	167.4255
-151	151.5074
-150	172.2196
-149	165.4089
-148	154.9219
-147	150.6089
-146	145.3507
-145	163.3903
-144	181.6386
-143	175.5847
-142	184.0087
-141	173.0448
-140	150.2348
-139	146.9864
-138	166.6514
-137	171.6729
-136	172.5247
-135	160.2767
-134	159.9533
-133	172.838
-132	182.0349
-131	179.5921
-130	164.2912
-129	150.7246
-128	160.3747
-127	148.4522
-126	158.5965
-125	161.7563
-124	152.8248
-123	185.9468
-122	171.2186
-121	167.0295
-120	177.9374
-119	154.8509
-118	152.3795
-117	171.9185
-116	154.5029
-115	164.7789
-114	166.4133
-113	171.1286
-112	165.6873
-111	168.5438
-110	193.4886
-109	163.1827
-108	169.4351
-107	166.8542
-106	157.4891
-105	165.3312
-104	155.1725
-103	176.6419
-102	177.1041
-101	191.6829
-100	185.0435
-99	195.9671
-98	178.3855
-97	181.8602
-96	174.8062
-95	143.9954
-94	150.7626
-93	177.743
-92	160.5614
-91	154.914
-90	160.0401
-89	183.7947
-88	193.5714
-87	187.8624
-86	174.6518
-85	173.0968
-84	179.6412
-83	177.4583
-82	174.3485
-81	176.8266
-80	183.2396
-79	176.1802
-78	188.174
-77	183.4691
-76	166.2313
-75	161.5762
-74	162.5292
-73	152.7906
-72	161.1787
-71	156.2369
-70	157.4083
-69	171.9508
-68	181.9943
-67	200.2701
-66	191.6139
-65	188.4925
-64	166.4589
-63	169.2303
-62	167.409
-61	178.361
-60	161.7772
-59	181.0479
-58	193.819
-57	204.0678
-56	208.7883
-55	222.9658
-54	228.3544
-53	182.8162
-52	181.2866
-51	180.7409
-50	178.6127
-49	156.0165
-48	185.0449
-47	192.7049
-46	208.7023
-45	240.0714
-44	222.7726
-43	221.7198
-42	229.1377
-41	216.5802
-40	215.4835
-39	236.5246
-38	190.2133
-37	184.2158
-36	201.5594
-35	210.772
-34	213.2093
-33	280.8146
-32	235.0281
-31	229.6572
-30	236.7953
-29	222.7727
-28	248.0411
-27	221.3336
-26	205.0575
-25	210.5737
-24	263.2691
-23	232.1331
-22	252.89
-21	215.3723
-20	194.3812
-19	203.2009
-18	205.5536
-17	217.04
-16	245.2232
-15	265.0084
-14	245.2665
-13	280.0541
-12	339.5087
-11	358.337
-10	335.32
-9	354.1476
-8	349.4946
-7	385.4945
-6	407.6378
-5	443.6237
-4	535.4213
-3	603.7166
-2	605.9523
-1	893.0183
0	11521.2776
1	893.0183
2	605.9523
3	603.7166
4	535.4213
5	443.6237
6	407.6378
7	385.4945
8	349.4946
9	354.1476
10	335.32
11	358.337
12	339.5087
13	280.0541
14	245.2665
15	265.0084
16	245.2232
17	217.04
18	205.5536
19	203.2009
20	194.3812
21	215.3723
22	252.89
23	232.1331
24	263.2691
25	210.5737
26	205.0575
27	221.3336
28	248.0411
29	222.7727
30	236.7953
31	229.6572
32	235.0281
33	280.8146
34	213.2093
35	210.772
36	201.5594
37	184.2158
38	190.2133
39	236.5246
40	215.4835
41	216.5802
42	229.1377
43	221.7198
44	222.7726
45	240.0714
46	208.7023
47	192.7049
48	185.0449
49	156.0165
50	178.6127
51	180.7409
52	181.2866
53	182.8162
54	228.3544
55	222.9658
56	208.7883
57	204.0678
58	193.819
59	181.0479
60	161.7772
61	178.361
62	167.409
63	169.2303
64	166.4589
65	188.4925
66	191.6139
67	200.2701
68	181.9943
69	171.9508
70	157.4083
71	156.2369
72	161.1787
73	152.7906
74	162.5292
75	161.5762
76	166.2313
77	183.4691
78	188.174
79	176.1802
80	183.2396
81	176.8266
82	174.3485
83	177.4583
84	179.6412
85	173.0968
86	174.6518
87	187.8624
88	193.5714
89	183.7947
90	160.0401
91	154.914
92	160.5614
93	177.743
94	150.7626
95	143.9954
96	174.8062
97	181.8602
98	178.3855
99	195.9671
100	185.0435
101	191.6829
102	177.1041
103	176.6419
104	155.1725
105	165.3312
106	157.4891
107	166.8542
108	169.4351
109	163.1827
110	193.4886
111	168.5438
112	165.6873
113	171.1286
114	166.4133
115	164.7789
116	154.5029
117	171.9185
118	152.3795
119	154.8509
120	177.9374
121	167.0295
122	171.2186
123	185.9468
124	152.8248
125	161.7563
126	158.5965
127	148.4522
128	160.3747
129	150.7246
130	164.2912
131	179.5921
132	182.0349
133	172.838
134	159.9533
135	160.2767
136	172.5247
137	171.6729
138	166.6514
139	146.9864
140	150.2348
141	173.0448
142	184.0087
143	175.5847
144	181.6386
145	163.3903
146	145.3507
147	150.6089
148	154.9219
149	165.4089
150	172.2196
151	151.5074
152	167.4255
153	177.595
154	173.3958
155	137.6746
156	156.8779
157	135.0847
158	169.7274
159	155.2105
160	137.7502
161	160.248
162	133.2874
163	147.8331
164	150.328
165	156.2103
166	131.9595
167	123.2455
168	126.7721
169	135.2356
170	147.4621
171	160.5203
172	146.7208
173	136.9957
174	164.3666
175	135.7822
176	159.7362
177	148.6993
178	136.3149
179	110.57
180	140.5325
181	141.2913
182	129.0513
183	126.5552
184	143.8659
185	130.6231
186	132.2395
187	141.4112
188	139.7172
189	142.0567
190	149.4682
191	132.8349
192	146.6998
193	142.7956
194	133.5213
195	128.648
196	152.4037
197	135.6764
198	144.6833
199	135.107
200	76.9246
