Position	Value
-200	61661.3229
-199	62386.3993
-198	62241.7646
-197	62764.256
-196	61872.3676
-195	62523.6909
-194	62280.3769
-193	61884.502
-192	62302.9597
-191	62802.218
-190	63422.4721
-189	63212.9904
-188	63126.4669
-187	63512.5858
-186	62452.5943
-185	63048.6385
-184	61356.1406
-183	62326.5434
-182	61974.9567
-181	62921.934
-180	61484.0845
-179	62786.3465
-178	62656.1846
-177	61796.7741
-176	62510.4503
-175	62366.4618
-174	62119.4184
-173	61410.8802
-172	62149.7107
-171	61756.7357
-170	61928.3087
-169	62252.3574
-168	62303.1878
-167	62274.7198
-166	62971.1487
-165	64094.1601
-164	62951.0543
-163	63134.7115
-162	63411.5356
-161	63107.1092
-160	62441.5304
-159	62682.9478
-158	62880.4232
-157	63169.5108
-156	64173.9724
-155	63909.7046
-154	64665.9831
-153	64665.5464
-152	64527.3647
-151	64376.2909
-150	64239.7836
-149	63654.2086
-148	64577.2916
-147	64817.9229
-146	65117.686
-145	65806.68
-144	65515.314
-143	66794.4828
-142	66399.9194
-141	65685.0849
-140	66366.9803
-139	65653.1603
-138	66867.155
-137	65519.8281
-136	66138.83
-135	67512.7647
-134	65693.2746
-133	68052.5718
-132	67068.4115
-131	67179.5067
-130	67457.3121
-129	65645.2711
-128	66488.4756
-127	66211.5027
-126	66404.278
-125	66269.7369
-124	67105.5494
-123	66454.0056
-122	67758.0571
-121	67490.6157
-120	68199.8247
-119	67459.0317
-118	66487.3377
-117	66857.1884
-116	66150.9757
-115	66835.2336
-114	66121.6359
-113	66983.7832
-112	66839.5495
-111	68585.3384
-110	68079.1652
-109	67044.6949
-108	67480.4112
-107	66247.7462
-106	66764.1818
-105	66639.0988
-104	67379.5832
-103	66824.3284
-102	67007.4389
-101	67283.2283
-100	66840.8945
-99	68137.5892
-98	67845.6812
-97	66034.7816
-96	67069.4138
-95	65954.5092
-94	66721.8607
-93	66406.8194
-92	66783.3842
-91	67227.1417
-90	67637.6116
-89	67173.0431
-88	68392.2413
-87	67730.3299
-86	67505.791
-85	67278.4566
-84	68180.2637
-83	66395.8231
-82	67269.319
-81	67533.6986
-80	66875.0872
-79	67562.9907
-78	68037.6183
-77	69053.7408
-76	68838.261
-75	69508.8807
-74	69485.6422
-73	68586.5875
-72	69111.1069
-71	69583.8923
-70	69026.7183
-69	69595.0773
-68	70692.7274
-67	69779.4412
-66	71124.8452
-65	70041.5232
-64	71413.7541
-63	70657.375
-62	70781.0228
-61	70960.7833
-60	71278.7606
-59	71571.5744
-58	72154.8664
-57	72385.8242
-56	72893.8104
-55	72289.2551
-54	72946.5128
-53	71892.2488
-52	71711.3785
-51	72198.0285
-50	71896.9806
-49	71347.7829
-48	72178.5703
-47	72596.9235
-46	72815.9926
-45	73180.3022
-44	75465.2207
-43	74126.9751
-42	74766.139
-41	75130.3336
-40	73448.5189
-39	75263.518
-38	74410.8495
-37	75483.6888
-36	76762.0464
-35	76541.8627
-34	78822.97
-33	79128.1137
-32	79872.1749
-31	78977.5583
-30	79159.6782
-29	80092.6147
-28	78878.9892
-27	75469.2969
-26	74695.9425
-25	76296.2712
-24	76655.1998
-23	78933.2795
-22	77977.3861
-21	81625.5825
-20	80869.5154
-19	81629.6745
-18	83890.1291
-17	86585.0027
-16	87702.6041
-15	90034.2968
-14	92987.1828
-13	95743.5448
-12	100994.8355
-11	103510.9736
-10	108615.2152
-9	112756.7994
-8	117948.2838
-7	122408.2404
-6	120145.9217
-5	135940.2761
-4	143316.7434
-3	152070.2416
-2	166176.8764
-1	158360.1498
0	445853.6459
1	158360.1498
2	166176.8764
3	152070.2416
4	143316.7434
5	135940.2761
6	120145.9217
7	122408.2404
8	117948.2838
9	112756.7994
10	108615.2152
11	103510.9736
12	100994.8355
13	95743.5448
14	92987.1828
15	90034.2968
16	87702.6041
17	86585.0027
18	83890.1291
19	81629.6745
20	80869.5154
21	81625.5825
22	77977.3861
23	78933.2795
24	76655.1998
25	76296.2712
26	74695.9425
27	75469.2969
28	78878.9892
29	80092.6147
30	79159.6782
31	78977.5583
32	79872.1749
33	79128.1137
34	78822.97
35	76541.8627
36	76762.0464
37	75483.6888
38	74410.8495
39	75263.518
40	73448.5189
41	75130.3336
42	74766.139
43	74126.9751
44	75465.2207
45	73180.3022
46	72815.9926
47	72596.9235
48	72178.5703
49	71347.7829
50	71896.9806
51	72198.0285
52	71711.3785
53	71892.2488
54	72946.5128
55	72289.2551
56	72893.8104
57	72385.8242
58	72154.8664
59	71571.5744
60	71278.7606
61	70960.7833
62	70781.0228
63	70657.375
64	71413.7541
65	70041.5232
66	71124.8452
67	69779.4412
68	70692.7274
69	69595.0773
70	69026.7183
71	69583.8923
72	69111.1069
73	68586.5875
74	69485.6422
75	69508.8807
76	68838.261
77	69053.7408
78	68037.6183
79	67562.9907
80	66875.0872
81	67533.6986
82	67269.319
83	66395.8231
84	68180.2637
85	67278.4566
86	67505.791
87	67730.3299
88	68392.2413
89	67173.0431
90	67637.6116
91	67227.1417
92	66783.3842
93	66406.8194
94	66721.8607
95	65954.5092
96	67069.4138
97	66034.7816
98	67845.6812
99	68137.5892
100	66840.8945
101	67283.2283
102	67007.4389
103	66824.3284
104	67379.5832
105	66639.0988
106	66764.1818
107	66247.7462
108	67480.4112
109	67044.6949
110	68079.1652
111	68585.3384
112	66839.5495
113	66983.7832
114	66121.6359
115	66835.2336
116	66150.9757
117	66857.1884
118	66487.3377
119	67459.0317
120	68199.8247
121	67490.6157
122	67758.0571
123	66454.0056
124	67105.5494
125	66269.7369
126	66404.278
127	66211.5027
128	66488.4756
129	65645.2711
130	67457.3121
131	67179.5067
132	67068.4115
133	68052.5718
134	65693.2746
135	67512.7647
136	66138.83
137	65519.8281
138	66867.155
139	65653.1603
140	66366.9803
141	65685.0849
142	66399.9194
143	66794.4828
144	65515.314
145	65806.68
146	65117.686
147	64817.9229
148	64577.2916
149	63654.2086
150	64239.7836
151	64376.2909
152	64527.3647
153	64665.5464
154	64665.9831
155	63909.7046
156	64173.9724
157	63169.5108
158	62880.4232
159	62682.9478
160	62441.5304
161	63107.1092
162	63411.5356
163	63134.7115
164	62951.0543
165	64094.1601
166	62971.1487
167	62274.7198
168	62303.1878
169	62252.3574
170	61928.3087
171	61756.7357
172	62149.7107
173	61410.8802
174	62119.4184
175	62366.4618
176	62510.4503
177	61796.7741
178	62656.1846
179	62786.3465
180	61484.0845
181	62921.934
182	61974.9567
183	62326.5434
184	61356.1406
185	63048.6385
186	62452.5943
187	63512.5858
188	63126.4669
189	63212.9904
190	63422.4721
191	62802.218
192	62302.9597
193	61884.502
194	62280.3769
195	62523.6909
196	61872.3676
197	62764.256
198	62241.7646
199	62386.3993
200	61661.3229
