Position	Value
-200	528390.9026
-199	528800.4858
-198	529012.5896
-197	530182.7046
-196	527397.8414
-195	530091.3788
-194	530621.9567
-193	529272.4231
-192	530841.3955
-191	531492.5365
-190	531268.244
-189	533904.8751
-188	531550.3886
-187	533707.5908
-186	532498.8112
-185	532201.2389
-184	530694.9264
-183	534728.4567
-182	530163.3107
-181	533542.9495
-180	533572.6858
-179	532259.2584
-178	534502.6545
-177	537324.4047
-176	535823.6026
-175	533716.7794
-174	537853.7645
-173	532604.5699
-172	535030.0645
-171	536732.9606
-170	537081.5353
-169	536951.8135
-168	534906.6612
-167	532948.7168
-166	536119.2426
-165	536522.2515
-164	533919.7483
-163	533889.128
-162	538211.9004
-161	535244.8005
-160	535426.7848
-159	539067.0478
-158	536515.1298
-157	537211.6325
-156	539110.523
-155	539304.7481
-154	541353.6317
-153	540576.2141
-152	541498.7021
-151	540429.1509
-150	545498.5644
-149	543097.258
-148	539423.2426
-147	544248.2499
-146	542081.1504
-145	545115.3903
-144	545383.3782
-143	544706.3495
-142	544361.8381
-141	549383.473
-140	544863.9021
-139	547276.8089
-138	548487.288
-137	544123.5491
-136	547015.2902
-135	548776.0749
-134	544105.1337
-133	548334.7264
-132	550864.6126
-131	548350.8009
-130	550287.795
-129	550075.822
-128	552784.6019
-127	551251.7144
-126	552548.3523
-125	551794.1006
-124	552170.9404
-123	553108.6203
-122	551900.1235
-121	553294.788
-120	555189.6767
-119	553435.5936
-118	553330.8812
-117	556280.1843
-116	552768.0606
-115	553294.6858
-114	555668.1853
-113	554166.1882
-112	556283.3033
-111	558852.7101
-110	554900.6068
-109	556000.6241
-108	558663.4976
-107	555035.2389
-106	555729.8244
-105	561941.5232
-104	554927.5824
-103	557121.8267
-102	559987.4117
-101	557732.9365
-100	557114.7091
-99	558624.3913
-98	560272.1601
-97	558572.2089
-96	562396.0972
-95	559535.6632
-94	560143.1912
-93	562673.7593
-92	560085.9861
-91	560481.6432
-90	562780.9031
-89	563112.9406
-88	559652.9045
-87	562148.3981
-86	558877.9273
-85	556923.3976
-84	564170.505
-83	559258.6333
-82	562255.9193
-81	563956.7661
-80	558693.6155
-79	565314.1933
-78	567648.2803
-77	568518.9076
-76	565262.5295
-75	569903.3402
-74	570180.7072
-73	566375.5988
-72	569639.0858
-71	566591.4296
-70	568453.9289
-69	573383.5027
-68	572244.9701
-67	571843.8659
-66	574993.771
-65	574873.1462
-64	575880.1811
-63	578481.5752
-62	578750.9026
-61	573877.6931
-60	579237.3963
-59	575016.1583
-58	570031.0372
-57	572698.7382
-56	565117.5712
-55	562064.1061
-54	566551.6937
-53	560786.9782
-52	562597.7433
-51	568288.051
-50	568877.8331
-49	571572.0083
-48	579675.265
-47	578409.3503
-46	581275.7658
-45	583908.361
-44	584043.3921
-43	582950.3027
-42	589093.4782
-41	589065.7397
-40	593135.7376
-39	602845.8375
-38	604351.9921
-37	609684.5739
-36	615357.6194
-35	623282.1705
-34	625965.4304
-33	633132.8536
-32	638945.1368
-31	647302.1902
-30	655437.4008
-29	652930.2287
-28	639604.6448
-27	600629.4563
-26	557010.8914
-25	551626.0583
-24	546079.3708
-23	538258.0944
-22	534767.8673
-21	549683.189
-20	547612.0949
-19	542244.6365
-18	556502.9915
-17	563377.5591
-16	579241.3345
-15	582731.2886
-14	600023.6635
-13	609885.2347
-12	634620.7915
-11	654880.184
-10	703181.3673
-9	719408.2339
-8	761684.7499
-7	811812.2291
-6	774768.306
-5	937147.3267
-4	979223.6787
-3	1072810.3417
-2	1117090.2014
-1	1005833.4167
0	4817377.5381
1	1005833.4167
2	1117090.2014
3	1072810.3417
4	979223.6787
5	937147.3267
6	774768.306
7	811812.2291
8	761684.7499
9	719408.2339
10	703181.3673
11	654880.184
12	634620.7915
13	609885.2347
14	600023.6635
15	582731.2886
16	579241.3345
17	563377.5591
18	556502.9915
19	542244.6365
20	547612.0949
21	549683.189
22	534767.8673
23	538258.0944
24	546079.3708
25	551626.0583
26	557010.8914
27	600629.4563
28	639604.6448
29	652930.2287
30	655437.4008
31	647302.1902
32	638945.1368
33	633132.8536
34	625965.4304
35	623282.1705
36	615357.6194
37	609684.5739
38	604351.9921
39	602845.8375
40	593135.7376
41	589065.7397
42	589093.4782
43	582950.3027
44	584043.3921
45	583908.361
46	581275.7658
47	578409.3503
48	579675.265
49	571572.0083
50	568877.8331
51	568288.051
52	562597.7433
53	560786.9782
54	566551.6937
55	562064.1061
56	565117.5712
57	572698.7382
58	570031.0372
59	575016.1583
60	579237.3963
61	573877.6931
62	578750.9026
63	578481.5752
64	575880.1811
65	574873.1462
66	574993.771
67	571843.8659
68	572244.9701
69	573383.5027
70	568453.9289
71	566591.4296
72	569639.0858
73	566375.5988
74	570180.7072
75	569903.3402
76	565262.5295
77	568518.9076
78	567648.2803
79	565314.1933
80	558693.6155
81	563956.7661
82	562255.9193
83	559258.6333
84	564170.505
85	556923.3976
86	558877.9273
87	562148.3981
88	559652.9045
89	563112.9406
90	562780.9031
91	560481.6432
92	560085.9861
93	562673.7593
94	560143.1912
95	559535.6632
96	562396.0972
97	558572.2089
98	560272.1601
99	558624.3913
100	557114.7091
101	557732.9365
102	559987.4117
103	557121.8267
104	554927.5824
105	561941.5232
106	555729.8244
107	555035.2389
108	558663.4976
109	556000.6241
110	554900.6068
111	558852.7101
112	556283.3033
113	554166.1882
114	555668.1853
115	553294.6858
116	552768.0606
117	556280.1843
118	553330.8812
119	553435.5936
120	555189.6767
121	553294.788
122	551900.1235
123	553108.6203
124	552170.9404
125	551794.1006
126	552548.3523
127	551251.7144
128	552784.6019
129	550075.822
130	550287.795
131	548350.8009
132	550864.6126
133	548334.7264
134	544105.1337
135	548776.0749
136	547015.2902
137	544123.5491
138	548487.288
139	547276.8089
140	544863.9021
141	549383.473
142	544361.8381
143	544706.3495
144	545383.3782
145	545115.3903
146	542081.1504
147	544248.2499
148	539423.2426
149	543097.258
150	545498.5644
151	540429.1509
152	541498.7021
153	540576.2141
154	541353.6317
155	539304.7481
156	539110.523
157	537211.6325
158	536515.1298
159	539067.0478
160	535426.7848
161	535244.8005
162	538211.9004
163	533889.128
164	533919.7483
165	536522.2515
166	536119.2426
167	532948.7168
168	534906.6612
169	536951.8135
170	537081.5353
171	536732.9606
172	535030.0645
173	532604.5699
174	537853.7645
175	533716.7794
176	535823.6026
177	537324.4047
178	534502.6545
179	532259.2584
180	533572.6858
181	533542.9495
182	530163.3107
183	534728.4567
184	530694.9264
185	532201.2389
186	532498.8112
187	533707.5908
188	531550.3886
189	533904.8751
190	531268.244
191	531492.5365
192	530841.3955
193	529272.4231
194	530621.9567
195	530091.3788
196	527397.8414
197	530182.7046
198	529012.5896
199	528800.4858
200	528390.9026
