Position	Value
-200	18033.4
-199	17847
-198	18458.2
-197	18532.8
-196	18396.4
-195	18546.5
-194	18869.1
-193	18726.6
-192	18916.7
-191	19051.4
-190	19184.5
-189	19777.7
-188	18956.4
-187	18800.8
-186	18543.2
-185	18806
-184	17740.2
-183	18611.2
-182	18135.4
-181	18198.5
-180	18182.8
-179	18146.2
-178	18717.2
-177	18379.8
-176	18083.3
-175	17915.1
-174	17801.7
-173	17552.1
-172	17761.9
-171	17776.8
-170	17737
-169	17565.7
-168	17906.7
-167	17438.2
-166	17665.8
-165	18199.8
-164	17532
-163	17730
-162	17928.8
-161	18140.8
-160	17900.5
-159	18630.6
-158	18190.9
-157	18527.7
-156	18802.5
-155	19047.5
-154	19149.1
-153	19334.8
-152	19122.9
-151	19424.2
-150	19183.7
-149	18580.4
-148	18761.8
-147	18813.8
-146	18951.9
-145	19325.8
-144	18680.8
-143	19135.7
-142	19036.5
-141	18744.8
-140	19227.4
-139	19187.8
-138	19767.1
-137	19055.2
-136	19454.6
-135	19931.8
-134	19452.7
-133	19888.2
-132	19645.9
-131	19751.7
-130	20191.9
-129	19456
-128	19899.2
-127	19991.1
-126	20291.7
-125	19329.7
-124	20042.6
-123	19779.5
-122	19892.7
-121	19712.7
-120	20134.8
-119	19517
-118	19616.8
-117	19667.3
-116	19458.8
-115	19779
-114	19927.7
-113	19689.9
-112	19675.6
-111	19913.1
-110	20291.2
-109	20437.8
-108	20202.9
-107	20138.9
-106	20488.5
-105	20099.9
-104	20485.3
-103	20646.8
-102	20245.6
-101	20470.3
-100	20423
-99	20614.6
-98	20690.8
-97	20590.5
-96	21011
-95	20607.1
-94	20575.4
-93	20855.9
-92	20054.6
-91	20570.3
-90	20073.9
-89	20365.7
-88	20509.4
-87	20110.1
-86	20213.3
-85	20151.5
-84	20250
-83	20271.5
-82	19811.8
-81	20052
-80	20047.1
-79	20357.7
-78	20091.2
-77	20261.7
-76	20136.2
-75	20439.3
-74	20521.1
-73	20591.7
-72	20402.7
-71	20423.2
-70	20795.1
-69	20316.7
-68	21430.3
-67	21249.1
-66	21417
-65	21706.2
-64	21830.7
-63	21718.1
-62	21880.7
-61	22187.4
-60	22453.3
-59	22359.1
-58	21388.4
-57	22255.4
-56	21852.7
-55	22071
-54	21803
-53	21211.8
-52	21329.1
-51	21191.8
-50	21402.2
-49	20603.6
-48	20993.8
-47	20947.8
-46	21157.3
-45	20523.7
-44	21334.4
-43	20970.9
-42	21565
-41	21583.3
-40	20683.5
-39	22006.4
-38	21470.7
-37	22104.9
-36	22739.2
-35	22693.4
-34	23618.9
-33	23709.1
-32	23856
-31	23364.8
-30	23683.1
-29	23511
-28	22343.9
-27	22419
-26	21840
-25	22063.1
-24	21958.4
-23	21124.3
-22	21740.4
-21	22230.5
-20	21884.7
-19	22093.5
-18	22433.9
-17	23112.1
-16	22940.4
-15	23641.4
-14	24637.9
-13	25061.5
-12	26752.7
-11	27207.7
-10	28760.6
-9	29923.3
-8	30565.4
-7	32635.5
-6	32589.1
-5	37270.3
-4	40034.1
-3	42856.2
-2	46585.3
-1	47814.2
0	172332
1	47814.2
2	46585.3
3	42856.2
4	40034.1
5	37270.3
6	32589.1
7	32635.5
8	30565.4
9	29923.3
10	28760.6
11	27207.7
12	26752.7
13	25061.5
14	24637.9
15	23641.4
16	22940.4
17	23112.1
18	22433.9
19	22093.5
20	21884.7
21	22230.5
22	21740.4
23	21124.3
24	21958.4
25	22063.1
26	21840
27	22419
28	22343.9
29	23511
30	23683.1
31	23364.8
32	23856
33	23709.1
34	23618.9
35	22693.4
36	22739.2
37	22104.9
38	21470.7
39	22006.4
40	20683.5
41	21583.3
42	21565
43	20970.9
44	21334.4
45	20523.7
46	21157.3
47	20947.8
48	20993.8
49	20603.6
50	21402.2
51	21191.8
52	21329.1
53	21211.8
54	21803
55	22071
56	21852.7
57	22255.4
58	21388.4
59	22359.1
60	22453.3
61	22187.4
62	21880.7
63	21718.1
64	21830.7
65	21706.2
66	21417
67	21249.1
68	21430.3
69	20316.7
70	20795.1
71	20423.2
72	20402.7
73	20591.7
74	20521.1
75	20439.3
76	20136.2
77	20261.7
78	20091.2
79	20357.7
80	20047.1
81	20052
82	19811.8
83	20271.5
84	20250
85	20151.5
86	20213.3
87	20110.1
88	20509.4
89	20365.7
90	20073.9
91	20570.3
92	20054.6
93	20855.9
94	20575.4
95	20607.1
96	21011
97	20590.5
98	20690.8
99	20614.6
100	20423
101	20470.3
102	20245.6
103	20646.8
104	20485.3
105	20099.9
106	20488.5
107	20138.9
108	20202.9
109	20437.8
110	20291.2
111	19913.1
112	19675.6
113	19689.9
114	19927.7
115	19779
116	19458.8
117	19667.3
118	19616.8
119	19517
120	20134.8
121	19712.7
122	19892.7
123	19779.5
124	20042.6
125	19329.7
126	20291.7
127	19991.1
128	19899.2
129	19456
130	20191.9
131	19751.7
132	19645.9
133	19888.2
134	19452.7
135	19931.8
136	19454.6
137	19055.2
138	19767.1
139	19187.8
140	19227.4
141	18744.8
142	19036.5
143	19135.7
144	18680.8
145	19325.8
146	18951.9
147	18813.8
148	18761.8
149	18580.4
150	19183.7
151	19424.2
152	19122.9
153	19334.8
154	19149.1
155	19047.5
156	18802.5
157	18527.7
158	18190.9
159	18630.6
160	17900.5
161	18140.8
162	17928.8
163	17730
164	17532
165	18199.8
166	17665.8
167	17438.2
168	17906.7
169	17565.7
170	17737
171	17776.8
172	17761.9
173	17552.1
174	17801.7
175	17915.1
176	18083.3
177	18379.8
178	18717.2
179	18146.2
180	18182.8
181	18198.5
182	18135.4
183	18611.2
184	17740.2
185	18806
186	18543.2
187	18800.8
188	18956.4
189	19777.7
190	19184.5
191	19051.4
192	18916.7
193	18726.6
194	18869.1
195	18546.5
196	18396.4
197	18532.8
198	18458.2
199	17847
200	18033.4
