Position	Value
-200	35.5506
-199	74.2392
-198	72.4336
-197	66.7693
-196	55.2313
-195	69.3768
-194	63.0287
-193	60.4495
-192	60.6125
-191	61.5362
-190	59.292
-189	67.2679
-188	58.6171
-187	74.4412
-186	53.7034
-185	71.7301
-184	64.0642
-183	59.4456
-182	60.0654
-181	58.301
-180	67.3411
-179	63.1827
-178	66.3069
-177	67.6385
-176	69.7118
-175	59.4056
-174	68.6973
-173	55.7507
-172	63.9643
-171	62.5451
-170	72.5422
-169	62.7677
-168	57.2916
-167	67.5689
-166	81.0975
-165	76.669
-164	69.2253
-163	57.1751
-162	60.5801
-161	60.9985
-160	63.3611
-159	69.1705
-158	62.3928
-157	56.3272
-156	71.4164
-155	80.0962
-154	74.8254
-153	60.1896
-152	65.9671
-151	72.53
-150	64.0244
-149	56.8625
-148	70.7695
-147	64.3888
-146	56.5054
-145	62.5433
-144	55.4492
-143	73.383
-142	65.7032
-141	73.6895
-140	60.3473
-139	60.0065
-138	66.0326
-137	66.6179
-136	76.6044
-135	71.2196
-134	70.9177
-133	76.7902
-132	67.5696
-131	75.6762
-130	68.2667
-129	54.8155
-128	58.2504
-127	66.2198
-126	64.3027
-125	69.3789
-124	60.7506
-123	71.3788
-122	76.2181
-121	67.0935
-120	68.4335
-119	67.128
-118	58.7371
-117	66.0494
-116	61.5945
-115	56.1288
-114	65.2889
-113	65.7891
-112	70.3869
-111	71.6335
-110	90.7706
-109	81.6615
-108	72.0136
-107	69.8372
-106	76.777
-105	59.9725
-104	60.5621
-103	68.583
-102	79.759
-101	83.2963
-100	83.7261
-99	76.4603
-98	85.8662
-97	73.5455
-96	72.2753
-95	83.1982
-94	80.0132
-93	64.717
-92	79.2961
-91	79.8677
-90	88.1426
-89	90.2148
-88	90.0025
-87	81.7053
-86	85.764
-85	89.2112
-84	86.7095
-83	83.4818
-82	73.1433
-81	72.6654
-80	85.8761
-79	95.3348
-78	86.1257
-77	71.5881
-76	76.3745
-75	89.219
-74	76.3586
-73	66.7779
-72	78.28
-71	74.3234
-70	64.0605
-69	76.9559
-68	71.7235
-67	89.6391
-66	80.7346
-65	78.7178
-64	93.6428
-63	82.2898
-62	69.4705
-61	66.2778
-60	80.9185
-59	83.6482
-58	72.0291
-57	71.8976
-56	84.0898
-55	97.2495
-54	79.2942
-53	94.7108
-52	73.4041
-51	71.4849
-50	78.8003
-49	76.4039
-48	82.6326
-47	78.2253
-46	74.8894
-45	91.8907
-44	94.2533
-43	105.3695
-42	93.5397
-41	88.626
-40	95.9356
-39	97.5523
-38	77.4396
-37	76.2497
-36	92.0092
-35	95.0984
-34	104.3747
-33	102.8305
-32	99.2607
-31	95.7656
-30	86.905
-29	97.0141
-28	85.9249
-27	99.2247
-26	103.9441
-25	85.103
-24	109.1607
-23	97.3279
-22	94.3737
-21	93.2809
-20	83.3597
-19	67.9392
-18	76.1155
-17	84.2059
-16	111.5114
-15	89.3996
-14	105.4159
-13	113.7726
-12	117.7838
-11	133.8916
-10	135.3049
-9	142.1541
-8	145.4624
-7	148.258
-6	152.9754
-5	213.2881
-4	219.5177
-3	252.6837
-2	305.8298
-1	417.6655
0	7253.2282
1	417.6655
2	305.8298
3	252.6837
4	219.5177
5	213.2881
6	152.9754
7	148.258
8	145.4624
9	142.1541
10	135.3049
11	133.8916
12	117.7838
13	113.7726
14	105.4159
15	89.3996
16	111.5114
17	84.2059
18	76.1155
19	67.9392
20	83.3597
21	93.2809
22	94.3737
23	97.3279
24	109.1607
25	85.103
26	103.9441
27	99.2247
28	85.9249
29	97.0141
30	86.905
31	95.7656
32	99.2607
33	102.8305
34	104.3747
35	95.0984
36	92.0092
37	76.2497
38	77.4396
39	97.5523
40	95.9356
41	88.626
42	93.5397
43	105.3695
44	94.2533
45	91.8907
46	74.8894
47	78.2253
48	82.6326
49	76.4039
50	78.8003
51	71.4849
52	73.4041
53	94.7108
54	79.2942
55	97.2495
56	84.0898
57	71.8976
58	72.0291
59	83.6482
60	80.9185
61	66.2778
62	69.4705
63	82.2898
64	93.6428
65	78.7178
66	80.7346
67	89.6391
68	71.7235
69	76.9559
70	64.0605
71	74.3234
72	78.28
73	66.7779
74	76.3586
75	89.219
76	76.3745
77	71.5881
78	86.1257
79	95.3348
80	85.8761
81	72.6654
82	73.1433
83	83.4818
84	86.7095
85	89.2112
86	85.764
87	81.7053
88	90.0025
89	90.2148
90	88.1426
91	79.8677
92	79.2961
93	64.717
94	80.0132
95	83.1982
96	72.2753
97	73.5455
98	85.8662
99	76.4603
100	83.7261
101	83.2963
102	79.759
103	68.583
104	60.5621
105	59.9725
106	76.777
107	69.8372
108	72.0136
109	81.6615
110	90.7706
111	71.6335
112	70.3869
113	65.7891
114	65.2889
115	56.1288
116	61.5945
117	66.0494
118	58.7371
119	67.128
120	68.4335
121	67.0935
122	76.2181
123	71.3788
124	60.7506
125	69.3789
126	64.3027
127	66.2198
128	58.2504
129	54.8155
130	68.2667
131	75.6762
132	67.5696
133	76.7902
134	70.9177
135	71.2196
136	76.6044
137	66.6179
138	66.0326
139	60.0065
140	60.3473
141	73.6895
142	65.7032
143	73.383
144	55.4492
145	62.5433
146	56.5054
147	64.3888
148	70.7695
149	56.8625
150	64.0244
151	72.53
152	65.9671
153	60.1896
154	74.8254
155	80.0962
156	71.4164
157	56.3272
158	62.3928
159	69.1705
160	63.3611
161	60.9985
162	60.5801
163	57.1751
164	69.2253
165	76.669
166	81.0975
167	67.5689
168	57.2916
169	62.7677
170	72.5422
171	62.5451
172	63.9643
173	55.7507
174	68.6973
175	59.4056
176	69.7118
177	67.6385
178	66.3069
179	63.1827
180	67.3411
181	58.301
182	60.0654
183	59.4456
184	64.0642
185	71.7301
186	53.7034
187	74.4412
188	58.6171
189	67.2679
190	59.292
191	61.5362
192	60.6125
193	60.4495
194	63.0287
195	69.3768
196	55.2313
197	66.7693
198	72.4336
199	74.2392
200	35.5506
