Position	Value
-200	1324.15
-199	1213.66
-198	1326.55
-197	1378.94
-196	1173.36
-195	1409.08
-194	1305.72
-193	1264.96
-192	1404.78
-191	1333.19
-190	1240.75
-189	1410.36
-188	1352.88
-187	1254.06
-186	1201.93
-185	1249.47
-184	1196.17
-183	1341.28
-182	1181.34
-181	1334.51
-180	1271.28
-179	1195.6
-178	1403.02
-177	1369.54
-176	1149.4
-175	1347.18
-174	1289.92
-173	1269.78
-172	1429.59
-171	1414.89
-170	1341.67
-169	1290.4
-168	1402.52
-167	1226.51
-166	1310.09
-165	1441.77
-164	1271.12
-163	1295.35
-162	1381.83
-161	1418.53
-160	1206.73
-159	1421.42
-158	1287.73
-157	1298.36
-156	1324.51
-155	1287.89
-154	1336.18
-153	1374.13
-152	1279.71
-151	1418.12
-150	1307.02
-149	1326.3
-148	1316.55
-147	1270.87
-146	1265.53
-145	1287.85
-144	1398.53
-143	1293.45
-142	1336.63
-141	1294.5
-140	1250.6
-139	1385.14
-138	1440.2
-137	1235.39
-136	1397.13
-135	1410.21
-134	1329.41
-133	1394.93
-132	1365.23
-131	1443.48
-130	1436.34
-129	1285.71
-128	1491.46
-127	1394.78
-126	1447.14
-125	1262.69
-124	1486.44
-123	1480.81
-122	1461.63
-121	1400.72
-120	1420.54
-119	1315.19
-118	1427.31
-117	1345.77
-116	1356.33
-115	1400.31
-114	1452.01
-113	1445.13
-112	1311.89
-111	1288.63
-110	1480.45
-109	1534.95
-108	1441.93
-107	1383.43
-106	1487.15
-105	1414.21
-104	1459.61
-103	1472.54
-102	1428.59
-101	1341.12
-100	1490.86
-99	1489.1
-98	1367.12
-97	1598.3
-96	1496.89
-95	1412.96
-94	1546.98
-93	1564.25
-92	1498.19
-91	1496.15
-90	1375.98
-89	1466.46
-88	1438.2
-87	1369.86
-86	1388.61
-85	1474.95
-84	1357.69
-83	1563.89
-82	1385.33
-81	1482.99
-80	1420.57
-79	1415.89
-78	1480.56
-77	1450.43
-76	1438.33
-75	1386.87
-74	1566.35
-73	1451.16
-72	1464.28
-71	1467.05
-70	1503.05
-69	1423.98
-68	1570.7
-67	1437.74
-66	1445.87
-65	1409.07
-64	1478.82
-63	1497.89
-62	1535.63
-61	1533.75
-60	1605.67
-59	1609.02
-58	1386.13
-57	1649.8
-56	1575.82
-55	1560.84
-54	1553.97
-53	1418.45
-52	1377.35
-51	1314.62
-50	1358.05
-49	1310.99
-48	1418.96
-47	1340.29
-46	1293.21
-45	1296.83
-44	1437.43
-43	1546.96
-42	1489.71
-41	1458.43
-40	1498.66
-39	1734.11
-38	1539.39
-37	1557.42
-36	1756.45
-35	1850.56
-34	1800.7
-33	1778.81
-32	1967.93
-31	1875.59
-30	1969.52
-29	2003.2
-28	1816.44
-27	1927.36
-26	1761.9
-25	1615.27
-24	1560.74
-23	1487.55
-22	1472.17
-21	1657.97
-20	1538.65
-19	1464.26
-18	1509.82
-17	1702.96
-16	1717.38
-15	1688.45
-14	1791.12
-13	1792.07
-12	2008.8
-11	1813.01
-10	2114.96
-9	2191.07
-8	2248.51
-7	2394.61
-6	2202.42
-5	2855.19
-4	2984.21
-3	3252.37
-2	3438.41
-1	3283.99
0	21636.8
1	3283.99
2	3438.41
3	3252.37
4	2984.21
5	2855.19
6	2202.42
7	2394.61
8	2248.51
9	2191.07
10	2114.96
11	1813.01
12	2008.8
13	1792.07
14	1791.12
15	1688.45
16	1717.38
17	1702.96
18	1509.82
19	1464.26
20	1538.65
21	1657.97
22	1472.17
23	1487.55
24	1560.74
25	1615.27
26	1761.9
27	1927.36
28	1816.44
29	2003.2
30	1969.52
31	1875.59
32	1967.93
33	1778.81
34	1800.7
35	1850.56
36	1756.45
37	1557.42
38	1539.39
39	1734.11
40	1498.66
41	1458.43
42	1489.71
43	1546.96
44	1437.43
45	1296.83
46	1293.21
47	1340.29
48	1418.96
49	1310.99
50	1358.05
51	1314.62
52	1377.35
53	1418.45
54	1553.97
55	1560.84
56	1575.82
57	1649.8
58	1386.13
59	1609.02
60	1605.67
61	1533.75
62	1535.63
63	1497.89
64	1478.82
65	1409.07
66	1445.87
67	1437.74
68	1570.7
69	1423.98
70	1503.05
71	1467.05
72	1464.28
73	1451.16
74	1566.35
75	1386.87
76	1438.33
77	1450.43
78	1480.56
79	1415.89
80	1420.57
81	1482.99
82	1385.33
83	1563.89
84	1357.69
85	1474.95
86	1388.61
87	1369.86
88	1438.2
89	1466.46
90	1375.98
91	1496.15
92	1498.19
93	1564.25
94	1546.98
95	1412.96
96	1496.89
97	1598.3
98	1367.12
99	1489.1
100	1490.86
101	1341.12
102	1428.59
103	1472.54
104	1459.61
105	1414.21
106	1487.15
107	1383.43
108	1441.93
109	1534.95
110	1480.45
111	1288.63
112	1311.89
113	1445.13
114	1452.01
115	1400.31
116	1356.33
117	1345.77
118	1427.31
119	1315.19
120	1420.54
121	1400.72
122	1461.63
123	1480.81
124	1486.44
125	1262.69
126	1447.14
127	1394.78
128	1491.46
129	1285.71
130	1436.34
131	1443.48
132	1365.23
133	1394.93
134	1329.41
135	1410.21
136	1397.13
137	1235.39
138	1440.2
139	1385.14
140	1250.6
141	1294.5
142	1336.63
143	1293.45
144	1398.53
145	1287.85
146	1265.53
147	1270.87
148	1316.55
149	1326.3
150	1307.02
151	1418.12
152	1279.71
153	1374.13
154	1336.18
155	1287.89
156	1324.51
157	1298.36
158	1287.73
159	1421.42
160	1206.73
161	1418.53
162	1381.83
163	1295.35
164	1271.12
165	1441.77
166	1310.09
167	1226.51
168	1402.52
169	1290.4
170	1341.67
171	1414.89
172	1429.59
173	1269.78
174	1289.92
175	1347.18
176	1149.4
177	1369.54
178	1403.02
179	1195.6
180	1271.28
181	1334.51
182	1181.34
183	1341.28
184	1196.17
185	1249.47
186	1201.93
187	1254.06
188	1352.88
189	1410.36
190	1240.75
191	1333.19
192	1404.78
193	1264.96
194	1305.72
195	1409.08
196	1173.36
197	1378.94
198	1326.55
199	1213.66
200	1324.15
