Position	Value
-200	3772.1761
-199	3780.3839
-198	3650.2616
-197	4068.3098
-196	3980.5562
-195	4021.3679
-194	4059.4654
-193	4608.7064
-192	4415.058
-191	4106.8338
-190	4845.5528
-189	4718.9529
-188	4462.6701
-187	4412.8057
-186	4604.2143
-185	4674.42
-184	4146.2872
-183	4342.2008
-182	4270.8927
-181	4091.8807
-180	4063.4682
-179	3980.941
-178	4112.9363
-177	3853.1625
-176	4198.625
-175	4060.8291
-174	3995.0753
-173	4083.4959
-172	3945.5356
-171	3874.3334
-170	3957.4324
-169	4416.1086
-168	3974.5461
-167	4210.8716
-166	4238.8496
-165	4259.5992
-164	4443.167
-163	4647.6341
-162	4424.2385
-161	4702.9156
-160	4556.2998
-159	4674.6068
-158	4428.7422
-157	4695.0347
-156	4154.804
-155	4622.3288
-154	4549.5707
-153	4340.9453
-152	4478.5928
-151	4809.5005
-150	4713.9706
-149	4809.0877
-148	5027.0488
-147	4694.9097
-146	4343.6964
-145	4392.8806
-144	4598.4335
-143	4299.9102
-142	4519.3461
-141	3971.6439
-140	4756.0632
-139	4268.1628
-138	4001.1852
-137	4211.2197
-136	4286.1265
-135	4249.0606
-134	4306.7078
-133	4928.8703
-132	4773.3352
-131	4551.3291
-130	5060.182
-129	4598.8589
-128	5076.364
-127	4864.5368
-126	4798.9739
-125	4878.8073
-124	4457.3779
-123	4867.9366
-122	4634.673
-121	4669.2705
-120	4736.425
-119	4528.4156
-118	4668.2901
-117	4231.0305
-116	4921.9798
-115	4666.7823
-114	4024.9154
-113	3984.2144
-112	4338.3852
-111	4334.4081
-110	4027.3723
-109	4525.7671
-108	4179.1542
-107	4142.788
-106	4342.2873
-105	4950.1365
-104	4722.9239
-103	4790.3445
-102	4921.6347
-101	5123.1615
-100	5417.8043
-99	5711.6777
-98	5680.7125
-97	5354.1453
-96	5809.6767
-95	5399.0053
-94	5831.1036
-93	5524.0436
-92	5880.5127
-91	5730.5813
-90	5291.4482
-89	5597.5926
-88	5517.7618
-87	5397.3461
-86	5103.8709
-85	5292.1034
-84	5221.7462
-83	4771.2993
-82	5122.5215
-81	5162.9219
-80	5123.892
-79	5079.2053
-78	5033.7193
-77	5413.1203
-76	5122.0394
-75	5395.9489
-74	5470.1368
-73	5097.0691
-72	5809.9874
-71	5793.9693
-70	5776.4387
-69	6211.5566
-68	5667.4277
-67	6331.6829
-66	6001.6705
-65	5987.2462
-64	6097.1572
-63	5986.6761
-62	6061.8599
-61	6106.9015
-60	6292.9112
-59	6165.2695
-58	5808.8195
-57	6248.281
-56	5464.9677
-55	5500.6397
-54	5431.0619
-53	4994.8715
-52	5207.7604
-51	4857.0783
-50	4773.1764
-49	4782.8123
-48	4941.4068
-47	4728.822
-46	5026.6254
-45	5126.7608
-44	4674.6582
-43	5040.9234
-42	4855.6324
-41	4537.2224
-40	4935.4509
-39	5435.6974
-38	5474.7212
-37	5523.428
-36	6169.3452
-35	6349.3906
-34	6088.5019
-33	6841.2419
-32	6681.4078
-31	6552.2496
-30	6716.9295
-29	6407.6849
-28	5671.6858
-27	5626.2963
-26	5825.2408
-25	5966.8992
-24	5847.0624
-23	5667.8226
-22	5992.3658
-21	6064.0121
-20	6273.871
-19	6037.5613
-18	6420.9664
-17	6685.789
-16	6586.2832
-15	7198.731
-14	6765.9101
-13	7401.8344
-12	8043.7981
-11	8576.8248
-10	9841.1532
-9	10051.7877
-8	10242.794
-7	12077.3085
-6	12122.002
-5	12887.6301
-4	15679.2478
-3	15931.4302
-2	18029.6095
-1	18922.5788
0	80286.1806
1	18922.5788
2	18029.6095
3	15931.4302
4	15679.2478
5	12887.6301
6	12122.002
7	12077.3085
8	10242.794
9	10051.7877
10	9841.1532
11	8576.8248
12	8043.7981
13	7401.8344
14	6765.9101
15	7198.731
16	6586.2832
17	6685.789
18	6420.9664
19	6037.5613
20	6273.871
21	6064.0121
22	5992.3658
23	5667.8226
24	5847.0624
25	5966.8992
26	5825.2408
27	5626.2963
28	5671.6858
29	6407.6849
30	6716.9295
31	6552.2496
32	6681.4078
33	6841.2419
34	6088.5019
35	6349.3906
36	6169.3452
37	5523.428
38	5474.7212
39	5435.6974
40	4935.4509
41	4537.2224
42	4855.6324
43	5040.9234
44	4674.6582
45	5126.7608
46	5026.6254
47	4728.822
48	4941.4068
49	4782.8123
50	4773.1764
51	4857.0783
52	5207.7604
53	4994.8715
54	5431.0619
55	5500.6397
56	5464.9677
57	6248.281
58	5808.8195
59	6165.2695
60	6292.9112
61	6106.9015
62	6061.8599
63	5986.6761
64	6097.1572
65	5987.2462
66	6001.6705
67	6331.6829
68	5667.4277
69	6211.5566
70	5776.4387
71	5793.9693
72	5809.9874
73	5097.0691
74	5470.1368
75	5395.9489
76	5122.0394
77	5413.1203
78	5033.7193
79	5079.2053
80	5123.892
81	5162.9219
82	5122.5215
83	4771.2993
84	5221.7462
85	5292.1034
86	5103.8709
87	5397.3461
88	5517.7618
89	5597.5926
90	5291.4482
91	5730.5813
92	5880.5127
93	5524.0436
94	5831.1036
95	5399.0053
96	5809.6767
97	5354.1453
98	5680.7125
99	5711.6777
100	5417.8043
101	5123.1615
102	4921.6347
103	4790.3445
104	4722.9239
105	4950.1365
106	4342.2873
107	4142.788
108	4179.1542
109	4525.7671
110	4027.3723
111	4334.4081
112	4338.3852
113	3984.2144
114	4024.9154
115	4666.7823
116	4921.9798
117	4231.0305
118	4668.2901
119	4528.4156
120	4736.425
121	4669.2705
122	4634.673
123	4867.9366
124	4457.3779
125	4878.8073
126	4798.9739
127	4864.5368
128	5076.364
129	4598.8589
130	5060.182
131	4551.3291
132	4773.3352
133	4928.8703
134	4306.7078
135	4249.0606
136	4286.1265
137	4211.2197
138	4001.1852
139	4268.1628
140	4756.0632
141	3971.6439
142	4519.3461
143	4299.9102
144	4598.4335
145	4392.8806
146	4343.6964
147	4694.9097
148	5027.0488
149	4809.0877
150	4713.9706
151	4809.5005
152	4478.5928
153	4340.9453
154	4549.5707
155	4622.3288
156	4154.804
157	4695.0347
158	4428.7422
159	4674.6068
160	4556.2998
161	4702.9156
162	4424.2385
163	4647.6341
164	4443.167
165	4259.5992
166	4238.8496
167	4210.8716
168	3974.5461
169	4416.1086
170	3957.4324
171	3874.3334
172	3945.5356
173	4083.4959
174	3995.0753
175	4060.8291
176	4198.625
177	3853.1625
178	4112.9363
179	3980.941
180	4063.4682
181	4091.8807
182	4270.8927
183	4342.2008
184	4146.2872
185	4674.42
186	4604.2143
187	4412.8057
188	4462.6701
189	4718.9529
190	4845.5528
191	4106.8338
192	4415.058
193	4608.7064
194	4059.4654
195	4021.3679
196	3980.5562
197	4068.3098
198	3650.2616
199	3780.3839
200	3772.1761
