Position	Value
-200	14620.6176
-199	7643.4136
-198	7422.6894
-197	8360.0763
-196	7761.5395
-195	7660.6833
-194	8002.0292
-193	8675.8201
-192	8089.3334
-191	8144.2061
-190	8661.5439
-189	9047.0369
-188	8880.219
-187	8710.8116
-186	8595.2286
-185	8715.5363
-184	8235.4782
-183	8894.3168
-182	8594.9612
-181	8437.1597
-180	8154.4298
-179	8171.0351
-178	8043.8506
-177	8175.3485
-176	8167.0766
-175	7897.9797
-174	8471.0775
-173	8077.6408
-172	8039.7122
-171	8531.5698
-170	8304.3388
-169	8471.2719
-168	7900.1445
-167	8261.1909
-166	8505.1793
-165	8500.5457
-164	8650.6886
-163	8966.6218
-162	9228.2455
-161	9382.8005
-160	9272.5291
-159	9197.076
-158	8846.9737
-157	9696.1972
-156	9017.4522
-155	9448.1271
-154	9269.5306
-153	9108.5562
-152	9252.2977
-151	9464.4979
-150	9339.4678
-149	9092.2796
-148	9509.7766
-147	9264.2557
-146	9166.8233
-145	8787.3726
-144	9191.8145
-143	8655.214
-142	8649.9902
-141	8383.3695
-140	9458.5293
-139	8642.1958
-138	8252.8723
-137	8633.331
-136	9386.622
-135	8468.8667
-134	9031.0872
-133	9431.8228
-132	9809.5872
-131	9026.6228
-130	9841.1566
-129	9464.6877
-128	10240.6108
-127	9592.157
-126	10436.3119
-125	10018.6674
-124	10007.3064
-123	9673.4826
-122	9882.553
-121	9524.8887
-120	10278.6458
-119	9526.8033
-118	9280.3646
-117	9279.6107
-116	10170.219
-115	9539.2958
-114	8750.1464
-113	8972.5082
-112	9281.7568
-111	9051.4172
-110	8421.8298
-109	8779.4024
-108	8897.5662
-107	8761.8344
-106	8952.3186
-105	10014.3369
-104	9224.1376
-103	9704.8043
-102	9597.4926
-101	9701.9324
-100	10098.9081
-99	10317.3042
-98	10424.1321
-97	10086.9289
-96	10460.7423
-95	9979.4374
-94	11021.0904
-93	10865.1773
-92	11047.8144
-91	10868.6873
-90	10373.7521
-89	11439.7922
-88	10779.1235
-87	10031.7952
-86	10176.1573
-85	10130.2992
-84	10288.5349
-83	9953.4163
-82	10117.3892
-81	9659.0143
-80	9804.4695
-79	9917.8864
-78	9671.0287
-77	10702.0898
-76	10247.8634
-75	10377.7825
-74	10291.9683
-73	10219.7935
-72	10757.0884
-71	10802.6835
-70	10506.8074
-69	11361.5323
-68	11254.7724
-67	12249.4225
-66	11256.1056
-65	11833.6111
-64	11569.2309
-63	11913.1988
-62	12375.4524
-61	11870.1561
-60	11719.866
-59	11563.1299
-58	11495.6009
-57	11470.9846
-56	11039.7072
-55	10235.6497
-54	10781.646
-53	9979.8225
-52	10345.0106
-51	9743.8955
-50	9589.3234
-49	9853.9396
-48	9417.4337
-47	9758.9142
-46	9885.2668
-45	10039.1418
-44	10065.1735
-43	10276.7158
-42	10518.1183
-41	9534.4677
-40	10897.1125
-39	10596.8504
-38	11308.9803
-37	11161.0936
-36	12504.9527
-35	12468.4642
-34	12243.6101
-33	12841.2693
-32	13713.3911
-31	13778.1728
-30	13899.8035
-29	13197.0007
-28	12249.9457
-27	11534.2965
-26	11998.1656
-25	11508.8273
-24	11280.0077
-23	11307.2645
-22	11545.2124
-21	11654.8117
-20	11797.5896
-19	11737.7144
-18	11824.7405
-17	11634.1428
-16	12079.9658
-15	13471.9639
-14	12476.4752
-13	13221.9938
-12	14351.0194
-11	15649.9883
-10	16861.3236
-9	17240.1665
-8	17800.6046
-7	18515.843
-6	19709.5754
-5	19904.0312
-4	22995.6851
-3	23200.6331
-2	25968.4533
-1	25478.0538
0	126778.6673
1	25478.0538
2	25968.4533
3	23200.6331
4	22995.6851
5	19904.0312
6	19709.5754
7	18515.843
8	17800.6046
9	17240.1665
10	16861.3236
11	15649.9883
12	14351.0194
13	13221.9938
14	12476.4752
15	13471.9639
16	12079.9658
17	11634.1428
18	11824.7405
19	11737.7144
20	11797.5896
21	11654.8117
22	11545.2124
23	11307.2645
24	11280.0077
25	11508.8273
26	11998.1656
27	11534.2965
28	12249.9457
29	13197.0007
30	13899.8035
31	13778.1728
32	13713.3911
33	12841.2693
34	12243.6101
35	12468.4642
36	12504.9527
37	11161.0936
38	11308.9803
39	10596.8504
40	10897.1125
41	9534.4677
42	10518.1183
43	10276.7158
44	10065.1735
45	10039.1418
46	9885.2668
47	9758.9142
48	9417.4337
49	9853.9396
50	9589.3234
51	9743.8955
52	10345.0106
53	9979.8225
54	10781.646
55	10235.6497
56	11039.7072
57	11470.9846
58	11495.6009
59	11563.1299
60	11719.866
61	11870.1561
62	12375.4524
63	11913.1988
64	11569.2309
65	11833.6111
66	11256.1056
67	12249.4225
68	11254.7724
69	11361.5323
70	10506.8074
71	10802.6835
72	10757.0884
73	10219.7935
74	10291.9683
75	10377.7825
76	10247.8634
77	10702.0898
78	9671.0287
79	9917.8864
80	9804.4695
81	9659.0143
82	10117.3892
83	9953.4163
84	10288.5349
85	10130.2992
86	10176.1573
87	10031.7952
88	10779.1235
89	11439.7922
90	10373.7521
91	10868.6873
92	11047.8144
93	10865.1773
94	11021.0904
95	9979.4374
96	10460.7423
97	10086.9289
98	10424.1321
99	10317.3042
100	10098.9081
101	9701.9324
102	9597.4926
103	9704.8043
104	9224.1376
105	10014.3369
106	8952.3186
107	8761.8344
108	8897.5662
109	8779.4024
110	8421.8298
111	9051.4172
112	9281.7568
113	8972.5082
114	8750.1464
115	9539.2958
116	10170.219
117	9279.6107
118	9280.3646
119	9526.8033
120	10278.6458
121	9524.8887
122	9882.553
123	9673.4826
124	10007.3064
125	10018.6674
126	10436.3119
127	9592.157
128	10240.6108
129	9464.6877
130	9841.1566
131	9026.6228
132	9809.5872
133	9431.8228
134	9031.0872
135	8468.8667
136	9386.622
137	8633.331
138	8252.8723
139	8642.1958
140	9458.5293
141	8383.3695
142	8649.9902
143	8655.214
144	9191.8145
145	8787.3726
146	9166.8233
147	9264.2557
148	9509.7766
149	9092.2796
150	9339.4678
151	9464.4979
152	9252.2977
153	9108.5562
154	9269.5306
155	9448.1271
156	9017.4522
157	9696.1972
158	8846.9737
159	9197.076
160	9272.5291
161	9382.8005
162	9228.2455
163	8966.6218
164	8650.6886
165	8500.5457
166	8505.1793
167	8261.1909
168	7900.1445
169	8471.2719
170	8304.3388
171	8531.5698
172	8039.7122
173	8077.6408
174	8471.0775
175	7897.9797
176	8167.0766
177	8175.3485
178	8043.8506
179	8171.0351
180	8154.4298
181	8437.1597
182	8594.9612
183	8894.3168
184	8235.4782
185	8715.5363
186	8595.2286
187	8710.8116
188	8880.219
189	9047.0369
190	8661.5439
191	8144.2061
192	8089.3334
193	8675.8201
194	8002.0292
195	7660.6833
196	7761.5395
197	8360.0763
198	7422.6894
199	7643.4136
200	14620.6176
