Position	Value
-200	4407.8027
-199	4589.6647
-198	4306.7234
-197	4421.8312
-196	4742.8478
-195	4871.3905
-194	4794.06
-193	5169.3599
-192	5190.3123
-191	4704.957
-190	5233.2655
-189	5407.491
-188	4899.3122
-187	5170.4256
-186	5111.5333
-185	5329.7423
-184	4914.5643
-183	4966.2738
-182	4690.5026
-181	4832.8087
-180	4650.3206
-179	4909.6665
-178	4525.4274
-177	4447.9832
-176	4818.8469
-175	4744.4358
-174	4869.8651
-173	4741.0193
-172	4901.6047
-171	4771.4684
-170	4923.3105
-169	4886.2335
-168	4736.5475
-167	4716.1549
-166	4810.9587
-165	4795.2386
-164	4923.495
-163	5400.1852
-162	4939.0761
-161	5509.8509
-160	5153.2343
-159	5166.5929
-158	4858.3557
-157	5364.39
-156	4649.4083
-155	5175.0268
-154	4844.1082
-153	4905.7556
-152	4887.436
-151	5462.8918
-150	5655.1663
-149	5028.6634
-148	5462.334
-147	5052.278
-146	4876.3659
-145	4897.4359
-144	5361.1465
-143	4755.9786
-142	4940.9236
-141	4454.6701
-140	5203.3206
-139	4648.0128
-138	4416.9236
-137	4500.3482
-136	4926.0229
-135	4597.1103
-134	4760.0708
-133	5393.5124
-132	5261.226
-131	5101.2096
-130	5830.9997
-129	5514.082
-128	5641.9899
-127	5512.9898
-126	5772.131
-125	5622.7627
-124	5127.8797
-123	5388.0476
-122	5549.88
-121	5148.9537
-120	5389.0639
-119	5240.2274
-118	5313.1259
-117	5412.6488
-116	5832.3568
-115	5522.9923
-114	5032.5024
-113	4958.1441
-112	5065.768
-111	5002.5091
-110	4817.0645
-109	5119.2443
-108	4981.5326
-107	5015.5062
-106	5456.2143
-105	5601.2542
-104	5692.7283
-103	5773.5833
-102	5656.4969
-101	5827.2591
-100	6286.1741
-99	6303.5695
-98	6324.2521
-97	6502.182
-96	6819.1675
-95	6214.1739
-94	6567.6654
-93	6497.4952
-92	6598.6063
-91	6019.396
-90	5905.5682
-89	6530.4414
-88	6200.341
-87	5669.6868
-86	5880.4184
-85	5762.0659
-84	5899.1713
-83	5739.2678
-82	5640.2268
-81	6015.5185
-80	5962.7507
-79	5802.3176
-78	5865.1881
-77	6028.5729
-76	5849.516
-75	6081.7719
-74	6321.5174
-73	5785.288
-72	6441.2352
-71	6456.8428
-70	6325.539
-69	6954.5124
-68	6781.1471
-67	7224.0338
-66	6690.7016
-65	7029.6266
-64	7145.5093
-63	6410.9056
-62	7133.3338
-61	7016.174
-60	6859.5877
-59	7155.801
-58	6443.3657
-57	6629.7476
-56	6044.1543
-55	5673.2114
-54	6005.9841
-53	5545.8275
-52	5943.7985
-51	5360.8163
-50	5228.2026
-49	5455.8972
-48	5554.3932
-47	5353.7548
-46	5646.7855
-45	5695.9346
-44	5103.751
-43	5426.9914
-42	5266.5088
-41	5131.2414
-40	5731.1097
-39	5956.5903
-38	6268.0293
-37	6246.2558
-36	7268.8616
-35	7320.4896
-34	7323.4159
-33	7667.0974
-32	7828.4632
-31	7798.2742
-30	7766.8198
-29	7154.7728
-28	6576.6502
-27	6243.9663
-26	6381.5378
-25	6356.8226
-24	5936.0744
-23	6228.4874
-22	6352.7342
-21	6129.6898
-20	6246.938
-19	6708.5912
-18	6691.8188
-17	6942.4689
-16	6985.5331
-15	7423.9623
-14	6960.6618
-13	7947.7875
-12	8405.7206
-11	9243.7556
-10	10133.481
-9	10461.4849
-8	11179.4662
-7	12128.2483
-6	12793.9432
-5	13456.1519
-4	16585.73
-3	16653.2432
-2	19244.8758
-1	19626.7739
0	85722.4221
1	19626.7739
2	19244.8758
3	16653.2432
4	16585.73
5	13456.1519
6	12793.9432
7	12128.2483
8	11179.4662
9	10461.4849
10	10133.481
11	9243.7556
12	8405.7206
13	7947.7875
14	6960.6618
15	7423.9623
16	6985.5331
17	6942.4689
18	6691.8188
19	6708.5912
20	6246.938
21	6129.6898
22	6352.7342
23	6228.4874
24	5936.0744
25	6356.8226
26	6381.5378
27	6243.9663
28	6576.6502
29	7154.7728
30	7766.8198
31	7798.2742
32	7828.4632
33	7667.0974
34	7323.4159
35	7320.4896
36	7268.8616
37	6246.2558
38	6268.0293
39	5956.5903
40	5731.1097
41	5131.2414
42	5266.5088
43	5426.9914
44	5103.751
45	5695.9346
46	5646.7855
47	5353.7548
48	5554.3932
49	5455.8972
50	5228.2026
51	5360.8163
52	5943.7985
53	5545.8275
54	6005.9841
55	5673.2114
56	6044.1543
57	6629.7476
58	6443.3657
59	7155.801
60	6859.5877
61	7016.174
62	7133.3338
63	6410.9056
64	7145.5093
65	7029.6266
66	6690.7016
67	7224.0338
68	6781.1471
69	6954.5124
70	6325.539
71	6456.8428
72	6441.2352
73	5785.288
74	6321.5174
75	6081.7719
76	5849.516
77	6028.5729
78	5865.1881
79	5802.3176
80	5962.7507
81	6015.5185
82	5640.2268
83	5739.2678
84	5899.1713
85	5762.0659
86	5880.4184
87	5669.6868
88	6200.341
89	6530.4414
90	5905.5682
91	6019.396
92	6598.6063
93	6497.4952
94	6567.6654
95	6214.1739
96	6819.1675
97	6502.182
98	6324.2521
99	6303.5695
100	6286.1741
101	5827.2591
102	5656.4969
103	5773.5833
104	5692.7283
105	5601.2542
106	5456.2143
107	5015.5062
108	4981.5326
109	5119.2443
110	4817.0645
111	5002.5091
112	5065.768
113	4958.1441
114	5032.5024
115	5522.9923
116	5832.3568
117	5412.6488
118	5313.1259
119	5240.2274
120	5389.0639
121	5148.9537
122	5549.88
123	5388.0476
124	5127.8797
125	5622.7627
126	5772.131
127	5512.9898
128	5641.9899
129	5514.082
130	5830.9997
131	5101.2096
132	5261.226
133	5393.5124
134	4760.0708
135	4597.1103
136	4926.0229
137	4500.3482
138	4416.9236
139	4648.0128
140	5203.3206
141	4454.6701
142	4940.9236
143	4755.9786
144	5361.1465
145	4897.4359
146	4876.3659
147	5052.278
148	5462.334
149	5028.6634
150	5655.1663
151	5462.8918
152	4887.436
153	4905.7556
154	4844.1082
155	5175.0268
156	4649.4083
157	5364.39
158	4858.3557
159	5166.5929
160	5153.2343
161	5509.8509
162	4939.0761
163	5400.1852
164	4923.495
165	4795.2386
166	4810.9587
167	4716.1549
168	4736.5475
169	4886.2335
170	4923.3105
171	4771.4684
172	4901.6047
173	4741.0193
174	4869.8651
175	4744.4358
176	4818.8469
177	4447.9832
178	4525.4274
179	4909.6665
180	4650.3206
181	4832.8087
182	4690.5026
183	4966.2738
184	4914.5643
185	5329.7423
186	5111.5333
187	5170.4256
188	4899.3122
189	5407.491
190	5233.2655
191	4704.957
192	5190.3123
193	5169.3599
194	4794.06
195	4871.3905
196	4742.8478
197	4421.8312
198	4306.7234
199	4589.6647
200	4407.8027
