Position	Value
-200	24130.4235
-199	48843.9724
-198	48475.4996
-197	48932.2667
-196	48858.3686
-195	48611.8251
-194	48992.4612
-193	49433.9854
-192	49625.5106
-191	50036.613
-190	50256.0955
-189	49886.2826
-188	49563.2625
-187	49476.758
-186	48944.1189
-185	48877.1359
-184	49493.7052
-183	49113.7237
-182	49412.0164
-181	49863.7428
-180	50148.0544
-179	50471.9876
-178	50267.5002
-177	50338.0304
-176	50120.1264
-175	50298.7906
-174	49718.3309
-173	49719.5786
-172	49870.7532
-171	49493.1005
-170	49300.9408
-169	48826.4254
-168	49409.5587
-167	49068.1844
-166	50041.8293
-165	49254.8761
-164	49252.73
-163	48942.2464
-162	49127.3011
-161	48939.614
-160	49276.0409
-159	48837.8531
-158	49181.9501
-157	48746.6944
-156	49847.7463
-155	49354.7344
-154	49873.4354
-153	49741.6513
-152	50316.4087
-151	49670.6399
-150	49945.2819
-149	49580.2484
-148	50209.0244
-147	50655.8852
-146	50453.2853
-145	50347.2853
-144	50223.9611
-143	50067.9416
-142	50195.9978
-141	50562.5225
-140	50989.7555
-139	51122.2053
-138	51240.798
-137	51493.6122
-136	51303.4517
-135	51533.6432
-134	51788.3231
-133	52441.1079
-132	52615.094
-131	52597.1799
-130	52563.2586
-129	52294.6164
-128	52726.1615
-127	52578.8377
-126	52519.9704
-125	52311.6763
-124	52175.5377
-123	52529.7535
-122	52449.5228
-121	52462.1518
-120	52489.5609
-119	52910.3034
-118	52707.6042
-117	53341.3153
-116	52888.1661
-115	52845.2349
-114	52293.7693
-113	52282.0682
-112	51898.6816
-111	52144.0585
-110	51932.7743
-109	51972.9515
-108	51608.9484
-107	52241.6105
-106	52127.8874
-105	52296.3667
-104	52025.6323
-103	52324.6763
-102	52310.8216
-101	52007.1658
-100	52846.1442
-99	52315.8292
-98	52669.0202
-97	52862.5231
-96	53151.4565
-95	52075.0779
-94	52685.0102
-93	52966.5611
-92	53369.2651
-91	53659.8822
-90	54168.9445
-89	54202.0276
-88	54730.4548
-87	54578.3727
-86	55267.6551
-85	54970.6869
-84	55041.6018
-83	54517.9985
-82	54279.7059
-81	54588.545
-80	53804.5805
-79	53693.6547
-78	52892.1246
-77	53138.6688
-76	53221.0471
-75	53257.3886
-74	52943.2833
-73	52981.3803
-72	53390.9408
-71	52943.6722
-70	53737.5176
-69	53545.2452
-68	53318.2495
-67	53493.6843
-66	53184.765
-65	53977.7506
-64	54406.9369
-63	54606.0865
-62	55156.4342
-61	54895.6734
-60	55705.4639
-59	55897.4882
-58	55597.1259
-57	55632.1281
-56	56025.5015
-55	55419.0953
-54	55680.1652
-53	55306.7573
-52	54994.5227
-51	55507.6196
-50	54453.8947
-49	54180.3124
-48	53593.455
-47	53420.3349
-46	53747.1721
-45	53989.9992
-44	53516.7084
-43	53454.8037
-42	53284.9368
-41	53567.2844
-40	53234.5595
-39	53590.6845
-38	53512.2328
-37	54316.0119
-36	55114.1881
-35	55556.059
-34	56375.7418
-33	56039.1224
-32	56610.8614
-31	56719.1079
-30	58097.4303
-29	59128.366
-28	59201.7932
-27	59637.5184
-26	57938.7271
-25	58136.5104
-24	58389.06
-23	58522.128
-22	60045.2862
-21	60629.8036
-20	63503.3168
-19	65936.0
-18	68325.5743
-17	71426.7123
-16	74043.3947
-15	77818.128
-14	80862.0372
-13	84892.5733
-12	92091.3356
-11	96553.1814
-10	105570.6858
-9	113259.9645
-8	122566.876
-7	133711.6338
-6	147985.0506
-5	163173.4524
-4	170036.6191
-3	183047.5349
-2	232547.965
-1	229371.3833
0	699083.0039
1	229371.3833
2	232547.965
3	183047.5349
4	170036.6191
5	163173.4524
6	147985.0506
7	133711.6338
8	122566.876
9	113259.9645
10	105570.6858
11	96553.1814
12	92091.3356
13	84892.5733
14	80862.0372
15	77818.128
16	74043.3947
17	71426.7123
18	68325.5743
19	65936.0
20	63503.3168
21	60629.8036
22	60045.2862
23	58522.128
24	58389.06
25	58136.5104
26	57938.7271
27	59637.5184
28	59201.7932
29	59128.366
30	58097.4303
31	56719.1079
32	56610.8614
33	56039.1224
34	56375.7418
35	55556.059
36	55114.1881
37	54316.0119
38	53512.2328
39	53590.6845
40	53234.5595
41	53567.2844
42	53284.9368
43	53454.8037
44	53516.7084
45	53989.9992
46	53747.1721
47	53420.3349
48	53593.455
49	54180.3124
50	54453.8947
51	55507.6196
52	54994.5227
53	55306.7573
54	55680.1652
55	55419.0953
56	56025.5015
57	55632.1281
58	55597.1259
59	55897.4882
60	55705.4639
61	54895.6734
62	55156.4342
63	54606.0865
64	54406.9369
65	53977.7506
66	53184.765
67	53493.6843
68	53318.2495
69	53545.2452
70	53737.5176
71	52943.6722
72	53390.9408
73	52981.3803
74	52943.2833
75	53257.3886
76	53221.0471
77	53138.6688
78	52892.1246
79	53693.6547
80	53804.5805
81	54588.545
82	54279.7059
83	54517.9985
84	55041.6018
85	54970.6869
86	55267.6551
87	54578.3727
88	54730.4548
89	54202.0276
90	54168.9445
91	53659.8822
92	53369.2651
93	52966.5611
94	52685.0102
95	52075.0779
96	53151.4565
97	52862.5231
98	52669.0202
99	52315.8292
100	52846.1442
101	52007.1658
102	52310.8216
103	52324.6763
104	52025.6323
105	52296.3667
106	52127.8874
107	52241.6105
108	51608.9484
109	51972.9515
110	51932.7743
111	52144.0585
112	51898.6816
113	52282.0682
114	52293.7693
115	52845.2349
116	52888.1661
117	53341.3153
118	52707.6042
119	52910.3034
120	52489.5609
121	52462.1518
122	52449.5228
123	52529.7535
124	52175.5377
125	52311.6763
126	52519.9704
127	52578.8377
128	52726.1615
129	52294.6164
130	52563.2586
131	52597.1799
132	52615.094
133	52441.1079
134	51788.3231
135	51533.6432
136	51303.4517
137	51493.6122
138	51240.798
139	51122.2053
140	50989.7555
141	50562.5225
142	50195.9978
143	50067.9416
144	50223.9611
145	50347.2853
146	50453.2853
147	50655.8852
148	50209.0244
149	49580.2484
150	49945.2819
151	49670.6399
152	50316.4087
153	49741.6513
154	49873.4354
155	49354.7344
156	49847.7463
157	48746.6944
158	49181.9501
159	48837.8531
160	49276.0409
161	48939.614
162	49127.3011
163	48942.2464
164	49252.73
165	49254.8761
166	50041.8293
167	49068.1844
168	49409.5587
169	48826.4254
170	49300.9408
171	49493.1005
172	49870.7532
173	49719.5786
174	49718.3309
175	50298.7906
176	50120.1264
177	50338.0304
178	50267.5002
179	50471.9876
180	50148.0544
181	49863.7428
182	49412.0164
183	49113.7237
184	49493.7052
185	48877.1359
186	48944.1189
187	49476.758
188	49563.2625
189	49886.2826
190	50256.0955
191	50036.613
192	49625.5106
193	49433.9854
194	48992.4612
195	48611.8251
196	48858.3686
197	48932.2667
198	48475.4996
199	48843.9724
200	24130.4235
