Position	Value
-200	164150.4353
-199	326870.0136
-198	328899.1347
-197	327915.7732
-196	326940.152
-195	326838.1841
-194	327901.8599
-193	328335.005
-192	328565.8549
-191	327425.0489
-190	327789.8144
-189	327366.6207
-188	328131.3774
-187	328180.9807
-186	329452.4468
-185	328416.0045
-184	327205.2898
-183	328092.8711
-182	326717.3103
-181	327564.3038
-180	327991.8844
-179	328319.2191
-178	329012.7876
-177	330453.8621
-176	330642.7921
-175	330852.1748
-174	332502.6284
-173	331568.227
-172	332644.36
-171	331589.6935
-170	332373.063
-169	332223.3719
-168	332270.8652
-167	332422.0731
-166	332810.5771
-165	333829.0906
-164	334302.7006
-163	332032.8648
-162	333155.8994
-161	331475.3395
-160	331694.0318
-159	331159.6455
-158	332633.0094
-157	332777.6693
-156	333253.5855
-155	333024.3884
-154	332694.2121
-153	333989.9368
-152	333115.3819
-151	333905.8404
-150	333302.8911
-149	334403.3623
-148	334580.4093
-147	335532.8234
-146	335356.3252
-145	335482.0502
-144	335287.5023
-143	334525.7903
-142	333666.5373
-141	335798.1378
-140	334739.1084
-139	334796.3733
-138	335486.7066
-137	335056.1158
-136	334495.7747
-135	334951.5677
-134	335611.3163
-133	334805.163
-132	337080.4185
-131	335705.1954
-130	335043.2388
-129	335827.8915
-128	334675.2425
-127	334779.2253
-126	334996.1953
-125	333644.9665
-124	334692.8851
-123	334878.4372
-122	334830.519
-121	335257.9916
-120	336426.0883
-119	336684.7366
-118	336629.3681
-117	340677.1368
-116	337181.2657
-115	339109.0299
-114	339972.3604
-113	339563.5729
-112	339036.9406
-111	340161.5271
-110	339742.1806
-109	339154.1861
-108	339302.6389
-107	339439.0188
-106	338731.4766
-105	338408.2632
-104	337271.3009
-103	336702.0176
-102	335806.7162
-101	337120.4368
-100	336018.1877
-99	337069.2133
-98	337733.8501
-97	338097.5938
-96	338592.9084
-95	338336.5593
-94	338060.5291
-93	339449.4417
-92	340341.503
-91	338705.494
-90	341619.6718
-89	342644.9728
-88	343872.4987
-87	344214.9945
-86	344657.6747
-85	345032.7435
-84	348275.4479
-83	347303.3024
-82	345572.4639
-81	346556.3081
-80	344872.3602
-79	344451.2609
-78	346344.7814
-77	343086.6708
-76	341687.0055
-75	342539.9961
-74	340045.133
-73	341270.5593
-72	340701.9084
-71	341141.6389
-70	340579.4338
-69	341610.6706
-68	340987.5875
-67	339789.2759
-66	343701.4626
-65	342803.6824
-64	344735.2036
-63	347508.7233
-62	346696.3495
-61	348838.106
-60	350516.2325
-59	352802.2452
-58	355609.6073
-57	356992.46
-56	358175.0388
-55	360292.9662
-54	358409.1078
-53	356980.517
-52	353627.2258
-51	350457.0753
-50	344616.6668
-49	342726.1404
-48	340386.3224
-47	340246.0354
-46	339282.9187
-45	340095.1544
-44	338705.9559
-43	340422.6619
-42	339304.7442
-41	341000.0868
-40	342092.1403
-39	341506.1481
-38	344560.1409
-37	346317.9725
-36	352054.3877
-35	352741.7002
-34	355473.4643
-33	360443.4015
-32	366145.6304
-31	369178.7702
-30	381845.0114
-29	389734.7161
-28	396838.3045
-27	402895.0007
-26	395349.9011
-25	389492.1235
-24	381365.3152
-23	367565.3057
-22	364879.186
-21	369530.8862
-20	377531.0367
-19	382955.5472
-18	392826.6672
-17	401001.7674
-16	411019.4598
-15	419790.5965
-14	421493.2072
-13	432343.7958
-12	444702.3515
-11	456368.3063
-10	476263.9779
-9	495812.2277
-8	524533.8261
-7	550023.3562
-6	583753.1351
-5	636645.8489
-4	652557.4229
-3	698867.4043
-2	859479.2659
-1	873007.6382
0	2696447.3984
1	873007.6382
2	859479.2659
3	698867.4043
4	652557.4229
5	636645.8489
6	583753.1351
7	550023.3562
8	524533.8261
9	495812.2277
10	476263.9779
11	456368.3063
12	444702.3515
13	432343.7958
14	421493.2072
15	419790.5965
16	411019.4598
17	401001.7674
18	392826.6672
19	382955.5472
20	377531.0367
21	369530.8862
22	364879.186
23	367565.3057
24	381365.3152
25	389492.1235
26	395349.9011
27	402895.0007
28	396838.3045
29	389734.7161
30	381845.0114
31	369178.7702
32	366145.6304
33	360443.4015
34	355473.4643
35	352741.7002
36	352054.3877
37	346317.9725
38	344560.1409
39	341506.1481
40	342092.1403
41	341000.0868
42	339304.7442
43	340422.6619
44	338705.9559
45	340095.1544
46	339282.9187
47	340246.0354
48	340386.3224
49	342726.1404
50	344616.6668
51	350457.0753
52	353627.2258
53	356980.517
54	358409.1078
55	360292.9662
56	358175.0388
57	356992.46
58	355609.6073
59	352802.2452
60	350516.2325
61	348838.106
62	346696.3495
63	347508.7233
64	344735.2036
65	342803.6824
66	343701.4626
67	339789.2759
68	340987.5875
69	341610.6706
70	340579.4338
71	341141.6389
72	340701.9084
73	341270.5593
74	340045.133
75	342539.9961
76	341687.0055
77	343086.6708
78	346344.7814
79	344451.2609
80	344872.3602
81	346556.3081
82	345572.4639
83	347303.3024
84	348275.4479
85	345032.7435
86	344657.6747
87	344214.9945
88	343872.4987
89	342644.9728
90	341619.6718
91	338705.494
92	340341.503
93	339449.4417
94	338060.5291
95	338336.5593
96	338592.9084
97	338097.5938
98	337733.8501
99	337069.2133
100	336018.1877
101	337120.4368
102	335806.7162
103	336702.0176
104	337271.3009
105	338408.2632
106	338731.4766
107	339439.0188
108	339302.6389
109	339154.1861
110	339742.1806
111	340161.5271
112	339036.9406
113	339563.5729
114	339972.3604
115	339109.0299
116	337181.2657
117	340677.1368
118	336629.3681
119	336684.7366
120	336426.0883
121	335257.9916
122	334830.519
123	334878.4372
124	334692.8851
125	333644.9665
126	334996.1953
127	334779.2253
128	334675.2425
129	335827.8915
130	335043.2388
131	335705.1954
132	337080.4185
133	334805.163
134	335611.3163
135	334951.5677
136	334495.7747
137	335056.1158
138	335486.7066
139	334796.3733
140	334739.1084
141	335798.1378
142	333666.5373
143	334525.7903
144	335287.5023
145	335482.0502
146	335356.3252
147	335532.8234
148	334580.4093
149	334403.3623
150	333302.8911
151	333905.8404
152	333115.3819
153	333989.9368
154	332694.2121
155	333024.3884
156	333253.5855
157	332777.6693
158	332633.0094
159	331159.6455
160	331694.0318
161	331475.3395
162	333155.8994
163	332032.8648
164	334302.7006
165	333829.0906
166	332810.5771
167	332422.0731
168	332270.8652
169	332223.3719
170	332373.063
171	331589.6935
172	332644.36
173	331568.227
174	332502.6284
175	330852.1748
176	330642.7921
177	330453.8621
178	329012.7876
179	328319.2191
180	327991.8844
181	327564.3038
182	326717.3103
183	328092.8711
184	327205.2898
185	328416.0045
186	329452.4468
187	328180.9807
188	328131.3774
189	327366.6207
190	327789.8144
191	327425.0489
192	328565.8549
193	328335.005
194	327901.8599
195	326838.1841
196	326940.152
197	327915.7732
198	328899.1347
199	326870.0136
200	164150.4353
