Position	Value
-200	5429.4415
-199	10961.0759
-198	10936.2967
-197	11003.6746
-196	11272.1469
-195	11241.1958
-194	11503.3192
-193	10960.6667
-192	11593.5415
-191	11119.0182
-190	11323.9925
-189	10931.3735
-188	11403.7549
-187	11326.0663
-186	11465.2262
-185	11278.2802
-184	11031.0447
-183	11260.8251
-182	11410.3829
-181	11460.8731
-180	11373.6412
-179	11491.7406
-178	11217.8198
-177	11647.9872
-176	11483.8375
-175	11508.2253
-174	11332.9137
-173	11439.6603
-172	11384.6598
-171	11594.9323
-170	11384.0387
-169	11398.7528
-168	11354.7199
-167	11366.879
-166	11640.4677
-165	11591.7326
-164	11527.8134
-163	11650.0335
-162	11537.1489
-161	11665.8533
-160	11414.2472
-159	11344.3756
-158	11427.107
-157	11019.4628
-156	11425.5857
-155	10968.3452
-154	11257.4217
-153	11362.5455
-152	11403.7903
-151	11541.6721
-150	11297.1533
-149	11392.5973
-148	11435.2763
-147	11506.229
-146	11397.9586
-145	11598.8908
-144	11760.7179
-143	11856.5931
-142	11520.4133
-141	11703.7394
-140	11242.2439
-139	11349.8831
-138	11438.2337
-137	11326.1314
-136	11187.7726
-135	11123.881
-134	11160.7086
-133	11083.1109
-132	11419.2352
-131	11005.2509
-130	11191.1755
-129	11069.7599
-128	11195.4581
-127	11262.6238
-126	11421.5304
-125	11237.3727
-124	11401.3716
-123	11257.8427
-122	11142.0374
-121	11280.3908
-120	11366.7813
-119	11559.31
-118	11419.9632
-117	11590.4123
-116	11601.9152
-115	11473.5194
-114	12021.8112
-113	11903.7481
-112	11936.2335
-111	11692.9937
-110	11910.2956
-109	11776.5119
-108	11736.1436
-107	11928.7972
-106	11741.1737
-105	11610.7487
-104	11495.9691
-103	11381.8554
-102	11075.3436
-101	11604.8685
-100	11518.0297
-99	11540.2851
-98	11912.1022
-97	11741.2397
-96	11824.5125
-95	11676.0343
-94	11686.7774
-93	11799.565
-92	11693.591
-91	11622.7164
-90	11747.0053
-89	11791.9487
-88	11771.8533
-87	11591.8045
-86	11813.8841
-85	11599.5054
-84	11525.3662
-83	11577.3395
-82	11386.7662
-81	11671.0464
-80	11628.4019
-79	11380.6628
-78	11369.0349
-77	11380.5429
-76	11268.8816
-75	11275.0568
-74	11467.069
-73	11478.9533
-72	11858.3945
-71	11798.6213
-70	11972.368
-69	11795.8044
-68	11738.8886
-67	11762.7633
-66	11831.0719
-65	11824.1585
-64	11722.1978
-63	11584.9129
-62	11759.4676
-61	11788.5546
-60	11928.9709
-59	11846.1752
-58	12322.3747
-57	12219.2198
-56	12305.3502
-55	12528.1345
-54	12449.8702
-53	12398.9775
-52	12321.3391
-51	12135.7137
-50	11593.8865
-49	11598.4089
-48	11267.3743
-47	11482.0005
-46	11045.3601
-45	10948.8817
-44	11293.2403
-43	11161.5342
-42	11266.9769
-41	11131.9896
-40	11255.7657
-39	11475.4846
-38	11623.9365
-37	11923.5629
-36	12090.218
-35	12112.1895
-34	12468.395
-33	12569.0091
-32	12827.7074
-31	13198.4281
-30	13731.6855
-29	14286.3216
-28	14247.8661
-27	14344.2195
-26	13832.2184
-25	13421.2893
-24	12743.0364
-23	12326.2882
-22	12400.8452
-21	12592.3584
-20	13425.9553
-19	13695.7866
-18	14298.6646
-17	15339.3818
-16	16243.2706
-15	17180.0848
-14	17880.539
-13	18989.7196
-12	20423.161
-11	21992.0393
-10	23606.2935
-9	25822.9522
-8	29529.3589
-7	31769.7097
-6	36520.0255
-5	42317.6916
-4	44295.3389
-3	51343.8069
-2	66543.3345
-1	63730.5343
0	271720.0805
1	63730.5343
2	66543.3345
3	51343.8069
4	44295.3389
5	42317.6916
6	36520.0255
7	31769.7097
8	29529.3589
9	25822.9522
10	23606.2935
11	21992.0393
12	20423.161
13	18989.7196
14	17880.539
15	17180.0848
16	16243.2706
17	15339.3818
18	14298.6646
19	13695.7866
20	13425.9553
21	12592.3584
22	12400.8452
23	12326.2882
24	12743.0364
25	13421.2893
26	13832.2184
27	14344.2195
28	14247.8661
29	14286.3216
30	13731.6855
31	13198.4281
32	12827.7074
33	12569.0091
34	12468.395
35	12112.1895
36	12090.218
37	11923.5629
38	11623.9365
39	11475.4846
40	11255.7657
41	11131.9896
42	11266.9769
43	11161.5342
44	11293.2403
45	10948.8817
46	11045.3601
47	11482.0005
48	11267.3743
49	11598.4089
50	11593.8865
51	12135.7137
52	12321.3391
53	12398.9775
54	12449.8702
55	12528.1345
56	12305.3502
57	12219.2198
58	12322.3747
59	11846.1752
60	11928.9709
61	11788.5546
62	11759.4676
63	11584.9129
64	11722.1978
65	11824.1585
66	11831.0719
67	11762.7633
68	11738.8886
69	11795.8044
70	11972.368
71	11798.6213
72	11858.3945
73	11478.9533
74	11467.069
75	11275.0568
76	11268.8816
77	11380.5429
78	11369.0349
79	11380.6628
80	11628.4019
81	11671.0464
82	11386.7662
83	11577.3395
84	11525.3662
85	11599.5054
86	11813.8841
87	11591.8045
88	11771.8533
89	11791.9487
90	11747.0053
91	11622.7164
92	11693.591
93	11799.565
94	11686.7774
95	11676.0343
96	11824.5125
97	11741.2397
98	11912.1022
99	11540.2851
100	11518.0297
101	11604.8685
102	11075.3436
103	11381.8554
104	11495.9691
105	11610.7487
106	11741.1737
107	11928.7972
108	11736.1436
109	11776.5119
110	11910.2956
111	11692.9937
112	11936.2335
113	11903.7481
114	12021.8112
115	11473.5194
116	11601.9152
117	11590.4123
118	11419.9632
119	11559.31
120	11366.7813
121	11280.3908
122	11142.0374
123	11257.8427
124	11401.3716
125	11237.3727
126	11421.5304
127	11262.6238
128	11195.4581
129	11069.7599
130	11191.1755
131	11005.2509
132	11419.2352
133	11083.1109
134	11160.7086
135	11123.881
136	11187.7726
137	11326.1314
138	11438.2337
139	11349.8831
140	11242.2439
141	11703.7394
142	11520.4133
143	11856.5931
144	11760.7179
145	11598.8908
146	11397.9586
147	11506.229
148	11435.2763
149	11392.5973
150	11297.1533
151	11541.6721
152	11403.7903
153	11362.5455
154	11257.4217
155	10968.3452
156	11425.5857
157	11019.4628
158	11427.107
159	11344.3756
160	11414.2472
161	11665.8533
162	11537.1489
163	11650.0335
164	11527.8134
165	11591.7326
166	11640.4677
167	11366.879
168	11354.7199
169	11398.7528
170	11384.0387
171	11594.9323
172	11384.6598
173	11439.6603
174	11332.9137
175	11508.2253
176	11483.8375
177	11647.9872
178	11217.8198
179	11491.7406
180	11373.6412
181	11460.8731
182	11410.3829
183	11260.8251
184	11031.0447
185	11278.2802
186	11465.2262
187	11326.0663
188	11403.7549
189	10931.3735
190	11323.9925
191	11119.0182
192	11593.5415
193	10960.6667
194	11503.3192
195	11241.1958
196	11272.1469
197	11003.6746
198	10936.2967
199	10961.0759
200	5429.4415
