Position	Value
-200	59731.9
-199	59969.8
-198	59644.7
-197	59359
-196	59849.1
-195	59754.3
-194	59522.4
-193	59279.1
-192	59929.6
-191	60300.8
-190	59984.1
-189	60031.8
-188	59754.5
-187	59994.2
-186	60551
-185	60116
-184	60288.6
-183	60432.5
-182	59700.9
-181	60036.6
-180	60146.2
-179	59784.8
-178	59543
-177	59969.5
-176	59526.4
-175	59589.3
-174	60368.3
-173	60039.5
-172	60275.9
-171	60122
-170	60371
-169	60344.7
-168	60369.3
-167	60549.9
-166	60661.7
-165	61039.2
-164	61331.9
-163	60918.8
-162	61152.5
-161	61446.4
-160	60935.9
-159	61006.1
-158	61370.1
-157	61367.2
-156	61571.2
-155	61614.3
-154	60895.3
-153	61309.6
-152	61185.1
-151	60583.1
-150	60980.9
-149	60903.8
-148	61120.6
-147	61142.8
-146	60528.7
-145	60909.4
-144	60615.9
-143	60575.9
-142	60809.1
-141	61030.9
-140	60959.4
-139	60626.8
-138	61046.1
-137	60577.5
-136	60446.6
-135	61154.6
-134	61133.1
-133	60779.7
-132	61303.2
-131	60931.1
-130	60874.3
-129	60729.4
-128	60703
-127	60590.9
-126	61086.5
-125	60924.3
-124	61136.7
-123	60637.4
-122	60528.6
-121	61087.4
-120	61133.7
-119	61485.6
-118	60933.7
-117	61889.9
-116	61228
-115	61124.1
-114	61508.3
-113	61545.1
-112	61128
-111	61530
-110	60844.6
-109	61424.1
-108	61089
-107	61563
-106	61608.7
-105	61753.9
-104	61319.4
-103	61147.5
-102	61579.4
-101	61543.1
-100	61119.7
-99	61663.4
-98	61879.8
-97	62189.1
-96	61629.1
-95	61688.4
-94	61849.8
-93	62312.7
-92	61829.2
-91	62372.3
-90	62607.2
-89	63166.1
-88	63057.4
-87	62777.1
-86	62884.7
-85	63253.2
-84	63616.2
-83	63334.1
-82	63007.7
-81	62838
-80	62806.9
-79	62243.4
-78	62222.9
-77	62400.6
-76	60830.1
-75	60818.7
-74	60282
-73	60558.7
-72	61171.5
-71	60869.3
-70	61173.7
-69	61490.1
-68	61245.5
-67	61385.2
-66	62684.9
-65	62038.4
-64	62749
-63	63433.2
-62	63577.8
-61	63575.3
-60	64898.7
-59	65193.6
-58	65284.2
-57	65853
-56	65755.9
-55	65647
-54	65293.7
-53	64939.6
-52	63856.3
-51	62305.2
-50	61047.8
-49	60474.8
-48	59763.7
-47	60281.2
-46	59860.7
-45	59940.7
-44	59919.1
-43	60063.1
-42	61014.8
-41	60161.5
-40	61143.7
-39	61261.7
-38	61749.5
-37	62965.8
-36	64139.9
-35	64049.2
-34	65466.4
-33	67456.8
-32	68541
-31	69989.4
-30	72675
-29	74476.6
-28	76377.9
-27	76145.2
-26	73053.8
-25	70390.8
-24	66737.8
-23	61749.2
-22	62093.3
-21	64610.2
-20	66092.1
-19	67067.3
-18	68104.5
-17	69956.3
-16	71978.7
-15	74083.9
-14	74361.3
-13	76623.8
-12	78578
-11	80095.3
-10	82930
-9	84365.4
-8	90869.5
-7	93974.9
-6	100218
-5	108635
-4	112174
-3	122258
-2	147604
-1	145235
0	642184
1	145235
2	147604
3	122258
4	112174
5	108635
6	100218
7	93974.9
8	90869.5
9	84365.4
10	82930
11	80095.3
12	78578
13	76623.8
14	74361.3
15	74083.9
16	71978.7
17	69956.3
18	68104.5
19	67067.3
20	66092.1
21	64610.2
22	62093.3
23	61749.2
24	66737.8
25	70390.8
26	73053.8
27	76145.2
28	76377.9
29	74476.6
30	72675
31	69989.4
32	68541
33	67456.8
34	65466.4
35	64049.2
36	64139.9
37	62965.8
38	61749.5
39	61261.7
40	61143.7
41	60161.5
42	61014.8
43	60063.1
44	59919.1
45	59940.7
46	59860.7
47	60281.2
48	59763.7
49	60474.8
50	61047.8
51	62305.2
52	63856.3
53	64939.6
54	65293.7
55	65647
56	65755.9
57	65853
58	65284.2
59	65193.6
60	64898.7
61	63575.3
62	63577.8
63	63433.2
64	62749
65	62038.4
66	62684.9
67	61385.2
68	61245.5
69	61490.1
70	61173.7
71	60869.3
72	61171.5
73	60558.7
74	60282
75	60818.7
76	60830.1
77	62400.6
78	62222.9
79	62243.4
80	62806.9
81	62838
82	63007.7
83	63334.1
84	63616.2
85	63253.2
86	62884.7
87	62777.1
88	63057.4
89	63166.1
90	62607.2
91	62372.3
92	61829.2
93	62312.7
94	61849.8
95	61688.4
96	61629.1
97	62189.1
98	61879.8
99	61663.4
100	61119.7
101	61543.1
102	61579.4
103	61147.5
104	61319.4
105	61753.9
106	61608.7
107	61563
108	61089
109	61424.1
110	60844.6
111	61530
112	61128
113	61545.1
114	61508.3
115	61124.1
116	61228
117	61889.9
118	60933.7
119	61485.6
120	61133.7
121	61087.4
122	60528.6
123	60637.4
124	61136.7
125	60924.3
126	61086.5
127	60590.9
128	60703
129	60729.4
130	60874.3
131	60931.1
132	61303.2
133	60779.7
134	61133.1
135	61154.6
136	60446.6
137	60577.5
138	61046.1
139	60626.8
140	60959.4
141	61030.9
142	60809.1
143	60575.9
144	60615.9
145	60909.4
146	60528.7
147	61142.8
148	61120.6
149	60903.8
150	60980.9
151	60583.1
152	61185.1
153	61309.6
154	60895.3
155	61614.3
156	61571.2
157	61367.2
158	61370.1
159	61006.1
160	60935.9
161	61446.4
162	61152.5
163	60918.8
164	61331.9
165	61039.2
166	60661.7
167	60549.9
168	60369.3
169	60344.7
170	60371
171	60122
172	60275.9
173	60039.5
174	60368.3
175	59589.3
176	59526.4
177	59969.5
178	59543
179	59784.8
180	60146.2
181	60036.6
182	59700.9
183	60432.5
184	60288.6
185	60116
186	60551
187	59994.2
188	59754.5
189	60031.8
190	59984.1
191	60300.8
192	59929.6
193	59279.1
194	59522.4
195	59754.3
196	59849.1
197	59359
198	59644.7
199	59969.8
200	59731.9
