Position	Value
-200	8023.3185
-199	16687.066
-198	16409.972
-197	16397.0063
-196	16589.6152
-195	16418.241
-194	16598.1533
-193	16392.6082
-192	16655.828
-191	16405.9792
-190	16639.6075
-189	16072.0244
-188	16576.0883
-187	16496.9384
-186	16616.5992
-185	16297.3055
-184	16163.8195
-183	16562.2687
-182	16727.1085
-181	16504.5302
-180	16614.6645
-179	16631.4439
-178	16572.0864
-177	16830.2788
-176	16464.1714
-175	16694.4061
-174	16785.2681
-173	16615.7341
-172	16639.0074
-171	16772.7949
-170	16407.4211
-169	16886.4497
-168	16392.261
-167	16995.1816
-166	17040.3799
-165	16698.3691
-164	16908.8029
-163	16768.7654
-162	16568.2436
-161	16979.6472
-160	16495.053
-159	16527.0871
-158	16805.5392
-157	16603.8058
-156	16363.4154
-155	16393.454
-154	16573.0676
-153	16736.1044
-152	16703.8795
-151	17153.0938
-150	16647.493
-149	16419.0946
-148	16600.764
-147	16429.1346
-146	16483.9528
-145	16787.7659
-144	16720.1502
-143	16677.7543
-142	16404.7454
-141	16575.4928
-140	16471.3077
-139	16634.4111
-138	16473.5599
-137	16369.4341
-136	16222.4412
-135	16115.2945
-134	16312.963
-133	16101.1553
-132	16638.8278
-131	16188.7464
-130	16179.461
-129	16422.3791
-128	16375.074
-127	16544.7101
-126	16801.7808
-125	16571.9094
-124	16772.4308
-123	16475.0988
-122	16975.4968
-121	16850.5958
-120	16655.2087
-119	16760.2246
-118	16792.2133
-117	16874.6272
-116	17063.2645
-115	16786.4039
-114	17528.8268
-113	17427.6528
-112	17269.833
-111	17422.5231
-110	17271.6898
-109	17230.3419
-108	17020.3454
-107	17043.3663
-106	16831.6818
-105	16774.2883
-104	16482.4714
-103	16395.9913
-102	16341.5234
-101	17044.4634
-100	16618.9352
-99	16953.3751
-98	16820.2029
-97	17133.8537
-96	17071.9987
-95	16888.7647
-94	17064.8969
-93	16959.0838
-92	17035.8786
-91	16983.4991
-90	17270.4279
-89	17598.8508
-88	17588.3547
-87	17611.625
-86	17288.4657
-85	17193.2375
-84	17672.2507
-83	17229.4757
-82	17467.2995
-81	17134.2901
-80	17297.2711
-79	17023.5617
-78	17055.0517
-77	16946.6203
-76	16622.6443
-75	16892.0828
-74	16847.8775
-73	17041.7114
-72	17578.1117
-71	17608.1245
-70	17407.3253
-69	17443.4875
-68	17205.6337
-67	17357.6528
-66	17230.6284
-65	17606.1167
-64	17694.1327
-63	17441.4771
-62	17581.4642
-61	17642.6456
-60	17870.5147
-59	17729.6317
-58	18217.4723
-57	18043.0384
-56	18181.9024
-55	18106.7056
-54	18323.9548
-53	18360.9152
-52	17688.4717
-51	17405.2885
-50	16745.2283
-49	16909.8025
-48	16261.6957
-47	16727.4
-46	16444.2946
-45	16245.521
-44	16430.4256
-43	15920.9022
-42	16570.4401
-41	16040.801
-40	16407.377
-39	16564.3167
-38	16924.0805
-37	17276.8392
-36	17124.2721
-35	17605.2383
-34	17947.164
-33	18482.3735
-32	18622.2764
-31	19175.52
-30	20083.7803
-29	20349.9455
-28	20440.7699
-27	20642.2652
-26	19833.2677
-25	19113.3837
-24	18037.1431
-23	17470.2281
-22	17469.5547
-21	17805.7221
-20	18894.339
-19	19267.492
-18	20367.7549
-17	21510.6483
-16	22675.7948
-15	23659.7902
-14	24689.3284
-13	25983.8566
-12	28023.7632
-11	30108.6858
-10	32008.7918
-9	35245.5981
-8	39761.4104
-7	43193.3064
-6	48276.1698
-5	55546.0259
-4	58702.1452
-3	66649.2402
-2	86274.8112
-1	83059.3494
0	341468.1801
1	83059.3494
2	86274.8112
3	66649.2402
4	58702.1452
5	55546.0259
6	48276.1698
7	43193.3064
8	39761.4104
9	35245.5981
10	32008.7918
11	30108.6858
12	28023.7632
13	25983.8566
14	24689.3284
15	23659.7902
16	22675.7948
17	21510.6483
18	20367.7549
19	19267.492
20	18894.339
21	17805.7221
22	17469.5547
23	17470.2281
24	18037.1431
25	19113.3837
26	19833.2677
27	20642.2652
28	20440.7699
29	20349.9455
30	20083.7803
31	19175.52
32	18622.2764
33	18482.3735
34	17947.164
35	17605.2383
36	17124.2721
37	17276.8392
38	16924.0805
39	16564.3167
40	16407.377
41	16040.801
42	16570.4401
43	15920.9022
44	16430.4256
45	16245.521
46	16444.2946
47	16727.4
48	16261.6957
49	16909.8025
50	16745.2283
51	17405.2885
52	17688.4717
53	18360.9152
54	18323.9548
55	18106.7056
56	18181.9024
57	18043.0384
58	18217.4723
59	17729.6317
60	17870.5147
61	17642.6456
62	17581.4642
63	17441.4771
64	17694.1327
65	17606.1167
66	17230.6284
67	17357.6528
68	17205.6337
69	17443.4875
70	17407.3253
71	17608.1245
72	17578.1117
73	17041.7114
74	16847.8775
75	16892.0828
76	16622.6443
77	16946.6203
78	17055.0517
79	17023.5617
80	17297.2711
81	17134.2901
82	17467.2995
83	17229.4757
84	17672.2507
85	17193.2375
86	17288.4657
87	17611.625
88	17588.3547
89	17598.8508
90	17270.4279
91	16983.4991
92	17035.8786
93	16959.0838
94	17064.8969
95	16888.7647
96	17071.9987
97	17133.8537
98	16820.2029
99	16953.3751
100	16618.9352
101	17044.4634
102	16341.5234
103	16395.9913
104	16482.4714
105	16774.2883
106	16831.6818
107	17043.3663
108	17020.3454
109	17230.3419
110	17271.6898
111	17422.5231
112	17269.833
113	17427.6528
114	17528.8268
115	16786.4039
116	17063.2645
117	16874.6272
118	16792.2133
119	16760.2246
120	16655.2087
121	16850.5958
122	16975.4968
123	16475.0988
124	16772.4308
125	16571.9094
126	16801.7808
127	16544.7101
128	16375.074
129	16422.3791
130	16179.461
131	16188.7464
132	16638.8278
133	16101.1553
134	16312.963
135	16115.2945
136	16222.4412
137	16369.4341
138	16473.5599
139	16634.4111
140	16471.3077
141	16575.4928
142	16404.7454
143	16677.7543
144	16720.1502
145	16787.7659
146	16483.9528
147	16429.1346
148	16600.764
149	16419.0946
150	16647.493
151	17153.0938
152	16703.8795
153	16736.1044
154	16573.0676
155	16393.454
156	16363.4154
157	16603.8058
158	16805.5392
159	16527.0871
160	16495.053
161	16979.6472
162	16568.2436
163	16768.7654
164	16908.8029
165	16698.3691
166	17040.3799
167	16995.1816
168	16392.261
169	16886.4497
170	16407.4211
171	16772.7949
172	16639.0074
173	16615.7341
174	16785.2681
175	16694.4061
176	16464.1714
177	16830.2788
178	16572.0864
179	16631.4439
180	16614.6645
181	16504.5302
182	16727.1085
183	16562.2687
184	16163.8195
185	16297.3055
186	16616.5992
187	16496.9384
188	16576.0883
189	16072.0244
190	16639.6075
191	16405.9792
192	16655.828
193	16392.6082
194	16598.1533
195	16418.241
196	16589.6152
197	16397.0063
198	16409.972
199	16687.066
200	8023.3185
