Position	Value
-200	6307.2997
-199	12921.1358
-198	12943.2157
-197	12962.3497
-196	13071.1883
-195	13223.24
-194	13125.9523
-193	13044.9637
-192	13386.9674
-191	12867.1201
-190	13013.8119
-189	12873.7536
-188	13270.3941
-187	13152.1334
-186	13157.9068
-185	13250.5348
-184	12867.4259
-183	13205.1481
-182	13030.1978
-181	13071.2648
-180	12996.999
-179	13136.497
-178	12959.4671
-177	13343.5846
-176	13038.5449
-175	12912.8898
-174	12787.9806
-173	12982.0213
-172	13170.7538
-171	12946.0566
-170	12606.6971
-169	12873.1207
-168	12749.4396
-167	12694.0879
-166	13118.5864
-165	12871.959
-164	12943.8741
-163	12920.0578
-162	12744.4699
-161	12944.6275
-160	13038.5104
-159	13120.7333
-158	13211.0191
-157	12985.6304
-156	13175.8621
-155	12911.5094
-154	13131.22
-153	13608.6336
-152	13205.3289
-151	13465.6712
-150	13078.7282
-149	13134.1084
-148	13115.7022
-147	13031.8578
-146	13013.6315
-145	13155.7339
-144	13307.8141
-143	13162.522
-142	12915.1074
-141	13499.5794
-140	13084.6399
-139	12988.2791
-138	12882.1105
-137	12649.6957
-136	12734.4349
-135	12477.9208
-134	12529.0117
-133	12611.7453
-132	12811.1433
-131	12321.0433
-130	12491.2442
-129	12460.4212
-128	12304.9895
-127	12654.8443
-126	12618.0737
-125	12551.0977
-124	12707.5352
-123	12531.5313
-122	12722.3944
-121	12753.7184
-120	13144.616
-119	13256.8153
-118	12967.013
-117	13142.1491
-116	13414.6877
-115	13442.1893
-114	13758.1982
-113	13732.8286
-112	13692.8646
-111	13493.8117
-110	13576.0077
-109	13552.9765
-108	13414.0209
-107	13585.8769
-106	13191.0021
-105	13006.9856
-104	12984.8857
-103	12592.8172
-102	12718.7171
-101	13376.333
-100	12723.2044
-99	13137.4385
-98	13425.0003
-97	13533.6207
-96	13539.8502
-95	13451.2783
-94	13318.5579
-93	13458.7666
-92	13230.4734
-91	13357.824
-90	13394.682
-89	13480.9103
-88	13548.1131
-87	13766.1458
-86	13593.5904
-85	13559.3751
-84	13851.021
-83	13498.4493
-82	13717.4422
-81	13562.8578
-80	13791.8968
-79	13591.8812
-78	13368.8453
-77	13026.0847
-76	12881.2256
-75	12713.4162
-74	13001.4088
-73	13217.7125
-72	13584.686
-71	13494.5627
-70	13400.3727
-69	13570.9419
-68	13306.8338
-67	13320.3037
-66	13506.2136
-65	13827.7161
-64	13701.4665
-63	13476.9844
-62	13694.7739
-61	13671.0237
-60	13853.2542
-59	13786.2304
-58	14023.4839
-57	14085.3017
-56	14130.0514
-55	14261.5626
-54	14059.9012
-53	13971.9887
-52	13939.2776
-51	13547.6929
-50	13096.4034
-49	12890.0346
-48	12582.862
-47	12905.4601
-46	12581.5771
-45	12482.0269
-44	12467.9342
-43	12205.0418
-42	12584.6118
-41	12521.8674
-40	12710.0379
-39	13134.4457
-38	13303.3859
-37	13580.2567
-36	13566.8536
-35	13683.9383
-34	14168.6526
-33	14460.3168
-32	14798.5627
-31	14819.5403
-30	15405.064
-29	15765.4146
-28	15768.0405
-27	16097.3452
-26	15260.3727
-25	14623.395
-24	13750.0681
-23	13393.2223
-22	13233.7352
-21	13643.7857
-20	14431.1213
-19	14879.3412
-18	15436.6662
-17	16358.4163
-16	17191.2034
-15	18391.992
-14	19017.1654
-13	19917.1301
-12	21573.8256
-11	23039.8028
-10	25075.4409
-9	27926.8708
-8	31946.3845
-7	34420.375
-6	38964.8017
-5	45658.616
-4	48122.2154
-3	55053.1791
-2	72619.6091
-1	71192.7775
0	308998.0787
1	71192.7775
2	72619.6091
3	55053.1791
4	48122.2154
5	45658.616
6	38964.8017
7	34420.375
8	31946.3845
9	27926.8708
10	25075.4409
11	23039.8028
12	21573.8256
13	19917.1301
14	19017.1654
15	18391.992
16	17191.2034
17	16358.4163
18	15436.6662
19	14879.3412
20	14431.1213
21	13643.7857
22	13233.7352
23	13393.2223
24	13750.0681
25	14623.395
26	15260.3727
27	16097.3452
28	15768.0405
29	15765.4146
30	15405.064
31	14819.5403
32	14798.5627
33	14460.3168
34	14168.6526
35	13683.9383
36	13566.8536
37	13580.2567
38	13303.3859
39	13134.4457
40	12710.0379
41	12521.8674
42	12584.6118
43	12205.0418
44	12467.9342
45	12482.0269
46	12581.5771
47	12905.4601
48	12582.862
49	12890.0346
50	13096.4034
51	13547.6929
52	13939.2776
53	13971.9887
54	14059.9012
55	14261.5626
56	14130.0514
57	14085.3017
58	14023.4839
59	13786.2304
60	13853.2542
61	13671.0237
62	13694.7739
63	13476.9844
64	13701.4665
65	13827.7161
66	13506.2136
67	13320.3037
68	13306.8338
69	13570.9419
70	13400.3727
71	13494.5627
72	13584.686
73	13217.7125
74	13001.4088
75	12713.4162
76	12881.2256
77	13026.0847
78	13368.8453
79	13591.8812
80	13791.8968
81	13562.8578
82	13717.4422
83	13498.4493
84	13851.021
85	13559.3751
86	13593.5904
87	13766.1458
88	13548.1131
89	13480.9103
90	13394.682
91	13357.824
92	13230.4734
93	13458.7666
94	13318.5579
95	13451.2783
96	13539.8502
97	13533.6207
98	13425.0003
99	13137.4385
100	12723.2044
101	13376.333
102	12718.7171
103	12592.8172
104	12984.8857
105	13006.9856
106	13191.0021
107	13585.8769
108	13414.0209
109	13552.9765
110	13576.0077
111	13493.8117
112	13692.8646
113	13732.8286
114	13758.1982
115	13442.1893
116	13414.6877
117	13142.1491
118	12967.013
119	13256.8153
120	13144.616
121	12753.7184
122	12722.3944
123	12531.5313
124	12707.5352
125	12551.0977
126	12618.0737
127	12654.8443
128	12304.9895
129	12460.4212
130	12491.2442
131	12321.0433
132	12811.1433
133	12611.7453
134	12529.0117
135	12477.9208
136	12734.4349
137	12649.6957
138	12882.1105
139	12988.2791
140	13084.6399
141	13499.5794
142	12915.1074
143	13162.522
144	13307.8141
145	13155.7339
146	13013.6315
147	13031.8578
148	13115.7022
149	13134.1084
150	13078.7282
151	13465.6712
152	13205.3289
153	13608.6336
154	13131.22
155	12911.5094
156	13175.8621
157	12985.6304
158	13211.0191
159	13120.7333
160	13038.5104
161	12944.6275
162	12744.4699
163	12920.0578
164	12943.8741
165	12871.959
166	13118.5864
167	12694.0879
168	12749.4396
169	12873.1207
170	12606.6971
171	12946.0566
172	13170.7538
173	12982.0213
174	12787.9806
175	12912.8898
176	13038.5449
177	13343.5846
178	12959.4671
179	13136.497
180	12996.999
181	13071.2648
182	13030.1978
183	13205.1481
184	12867.4259
185	13250.5348
186	13157.9068
187	13152.1334
188	13270.3941
189	12873.7536
190	13013.8119
191	12867.1201
192	13386.9674
193	13044.9637
194	13125.9523
195	13223.24
196	13071.1883
197	12962.3497
198	12943.2157
199	12921.1358
200	6307.2997
