Position	Value
-200	342738.1023
-199	686234.4958
-198	686312.8428
-197	687033.6556
-196	686556.7193
-195	688556.7936
-194	685704.716
-193	689208.2367
-192	690172.1645
-191	691170.5881
-190	691882.1432
-189	692628.5779
-188	690902.1476
-187	691144.7959
-186	691033.0112
-185	690914.3325
-184	693914.4801
-183	692593.3541
-182	692847.8305
-181	694296.6877
-180	694334.3296
-179	695742.6074
-178	697137.2311
-177	696886.2171
-176	697357.5467
-175	698083.4703
-174	698204.8376
-173	695703.6075
-172	699310.7894
-171	698367.2368
-170	696976.5582
-169	697094.1196
-168	698633.8771
-167	698615.9423
-166	699807.7455
-165	700730.7638
-164	700242.5736
-163	700077.1555
-162	701198.2262
-161	700688.3089
-160	702777.2611
-159	702045.686
-158	700908.2208
-157	698645.3271
-156	702011.4414
-155	702229.43
-154	706140.8496
-153	705921.3725
-152	705853.6986
-151	705215.004
-150	711801.6876
-149	709179.638
-148	709787.3433
-147	710962.9196
-146	709055.1979
-145	712931.1826
-144	715478.8553
-143	713771.1338
-142	716336.2067
-141	721096.933
-140	721201.6987
-139	724906.0916
-138	724086.4004
-137	725406.7412
-136	725480.3435
-135	726159.4428
-134	726984.9563
-133	726905.8407
-132	731610.8225
-131	729045.08
-130	730488.4374
-129	730337.2352
-128	728846.9741
-127	731831.0351
-126	732885.3592
-125	731884.3682
-124	731308.0496
-123	733157.8637
-122	730392.1088
-121	734378.0603
-120	734638.745
-119	736401.5946
-118	736226.0178
-117	738049.1419
-116	737713.5445
-115	737309.0391
-114	738584.6459
-113	735868.1084
-112	734074.9893
-111	733870.3262
-110	735225.7183
-109	735229.5329
-108	736529.4952
-107	736382.9759
-106	735791.1011
-105	735332.1078
-104	735596.2664
-103	735738.1958
-102	738701.3292
-101	737874.1918
-100	741680.9431
-99	742718.0562
-98	742784.258
-97	743590.8533
-96	745425.4482
-95	743758.9268
-94	744904.5546
-93	745813.5077
-92	747352.4189
-91	748077.1477
-90	750367.8272
-89	749819.1702
-88	750185.0232
-87	750773.9132
-86	750126.4967
-85	749608.7806
-84	750726.1812
-83	749349.1613
-82	749356.1293
-81	750740.6845
-80	751473.9974
-79	752461.0153
-78	750123.4763
-77	750662.3612
-76	748822.8511
-75	751983.1701
-74	750368.2509
-73	750488.3872
-72	751642.2663
-71	749446.711
-70	751691.6844
-69	751213.4183
-68	751302.0521
-67	753372.7233
-66	758880.2683
-65	760315.8733
-64	763274.5721
-63	765530.3912
-62	767935.5363
-61	767451.6492
-60	772663.1651
-59	774097.3932
-58	775383.0248
-57	778451.7411
-56	774948.2388
-55	775303.0847
-54	774665.8368
-53	770027.8431
-52	771649.8899
-51	768377.6609
-50	766919.9858
-49	766683.3991
-48	767629.1182
-47	768598.4391
-46	768398.0947
-45	770123.9198
-44	767334.7984
-43	769226.7416
-42	773551.0212
-41	771547.7321
-40	773788.4716
-39	773178.5857
-38	775294.5904
-37	780390.3419
-36	785321.423
-35	788094.0981
-34	791613.0004
-33	799019.7295
-32	805027.6798
-31	813242.4885
-30	824491.2036
-29	829171.635
-28	832920.8604
-27	832741.2084
-26	825638.4499
-25	823453.1797
-24	824617.9339
-23	834893.0902
-22	845970.445
-21	862480.5556
-20	885929.1772
-19	912222.8551
-18	945244.5541
-17	979589.236
-16	1012009.6609
-15	1055272.5057
-14	1100834.3995
-13	1152281.1008
-12	1234186.0298
-11	1300065.7807
-10	1406514.984
-9	1518329.5673
-8	1628272.6784
-7	1780628.0671
-6	1917953.7582
-5	2101123.3787
-4	2205133.9497
-3	2337874.4392
-2	2865644.8012
-1	2960411.2517
0	6133911.9565
1	2960411.2517
2	2865644.8012
3	2337874.4392
4	2205133.9497
5	2101123.3787
6	1917953.7582
7	1780628.0671
8	1628272.6784
9	1518329.5673
10	1406514.984
11	1300065.7807
12	1234186.0298
13	1152281.1008
14	1100834.3995
15	1055272.5057
16	1012009.6609
17	979589.236
18	945244.5541
19	912222.8551
20	885929.1772
21	862480.5556
22	845970.445
23	834893.0902
24	824617.9339
25	823453.1797
26	825638.4499
27	832741.2084
28	832920.8604
29	829171.635
30	824491.2036
31	813242.4885
32	805027.6798
33	799019.7295
34	791613.0004
35	788094.0981
36	785321.423
37	780390.3419
38	775294.5904
39	773178.5857
40	773788.4716
41	771547.7321
42	773551.0212
43	769226.7416
44	767334.7984
45	770123.9198
46	768398.0947
47	768598.4391
48	767629.1182
49	766683.3991
50	766919.9858
51	768377.6609
52	771649.8899
53	770027.8431
54	774665.8368
55	775303.0847
56	774948.2388
57	778451.7411
58	775383.0248
59	774097.3932
60	772663.1651
61	767451.6492
62	767935.5363
63	765530.3912
64	763274.5721
65	760315.8733
66	758880.2683
67	753372.7233
68	751302.0521
69	751213.4183
70	751691.6844
71	749446.711
72	751642.2663
73	750488.3872
74	750368.2509
75	751983.1701
76	748822.8511
77	750662.3612
78	750123.4763
79	752461.0153
80	751473.9974
81	750740.6845
82	749356.1293
83	749349.1613
84	750726.1812
85	749608.7806
86	750126.4967
87	750773.9132
88	750185.0232
89	749819.1702
90	750367.8272
91	748077.1477
92	747352.4189
93	745813.5077
94	744904.5546
95	743758.9268
96	745425.4482
97	743590.8533
98	742784.258
99	742718.0562
100	741680.9431
101	737874.1918
102	738701.3292
103	735738.1958
104	735596.2664
105	735332.1078
106	735791.1011
107	736382.9759
108	736529.4952
109	735229.5329
110	735225.7183
111	733870.3262
112	734074.9893
113	735868.1084
114	738584.6459
115	737309.0391
116	737713.5445
117	738049.1419
118	736226.0178
119	736401.5946
120	734638.745
121	734378.0603
122	730392.1088
123	733157.8637
124	731308.0496
125	731884.3682
126	732885.3592
127	731831.0351
128	728846.9741
129	730337.2352
130	730488.4374
131	729045.08
132	731610.8225
133	726905.8407
134	726984.9563
135	726159.4428
136	725480.3435
137	725406.7412
138	724086.4004
139	724906.0916
140	721201.6987
141	721096.933
142	716336.2067
143	713771.1338
144	715478.8553
145	712931.1826
146	709055.1979
147	710962.9196
148	709787.3433
149	709179.638
150	711801.6876
151	705215.004
152	705853.6986
153	705921.3725
154	706140.8496
155	702229.43
156	702011.4414
157	698645.3271
158	700908.2208
159	702045.686
160	702777.2611
161	700688.3089
162	701198.2262
163	700077.1555
164	700242.5736
165	700730.7638
166	699807.7455
167	698615.9423
168	698633.8771
169	697094.1196
170	696976.5582
171	698367.2368
172	699310.7894
173	695703.6075
174	698204.8376
175	698083.4703
176	697357.5467
177	696886.2171
178	697137.2311
179	695742.6074
180	694334.3296
181	694296.6877
182	692847.8305
183	692593.3541
184	693914.4801
185	690914.3325
186	691033.0112
187	691144.7959
188	690902.1476
189	692628.5779
190	691882.1432
191	691170.5881
192	690172.1645
193	689208.2367
194	685704.716
195	688556.7936
196	686556.7193
197	687033.6556
198	686312.8428
199	686234.4958
200	342738.1023
