Position	Value
-200	1106.775
-199	2319.7912
-198	2543.5905
-197	2380.9705
-196	2314.4752
-195	2210.3526
-194	2178.7568
-193	2223.5614
-192	2264.1731
-191	2138.7951
-190	2160.9279
-189	2212.7524
-188	2370.3108
-187	2433.537
-186	2430.9445
-185	2329.5079
-184	2284.4867
-183	2265.7896
-182	2217.1584
-181	2256.9722
-180	2311.3225
-179	2235.6401
-178	2303.6562
-177	2424.8541
-176	2446.9913
-175	2341.3524
-174	2332.6332
-173	2222.8106
-172	2227.0599
-171	2292.8897
-170	2296.9007
-169	2253.8453
-168	2292.4986
-167	2271.3015
-166	2330.3858
-165	2400.0332
-164	2399.584
-163	2327.5989
-162	2297.9175
-161	2145.5321
-160	2197.5023
-159	2240.7707
-158	2178.1865
-157	2161.3573
-156	2333.179
-155	2414.2576
-154	2479.5614
-153	2440.9201
-152	2285.7931
-151	2261.5849
-150	2216.5433
-149	2200.4093
-148	2238.638
-147	2259.934
-146	2371.5517
-145	2379.3377
-144	2553.0341
-143	2603.9158
-142	2575.0659
-141	2501.6863
-140	2329.9877
-139	2274.0666
-138	2360.1019
-137	2204.2119
-136	2225.8399
-135	2255.8966
-134	2375.66
-133	2435.0673
-132	2596.8576
-131	2536.0873
-130	2410.4417
-129	2360.9527
-128	2304.0991
-127	2251.4801
-126	2374.5268
-125	2375.8896
-124	2426.1954
-123	2548.5455
-122	2612.6336
-121	2693.3258
-120	2620.0746
-119	2464.7609
-118	2380.9956
-117	2413.8487
-116	2362.5844
-115	2330.0654
-114	2348.3674
-113	2293.0494
-112	2351.602
-111	2522.9028
-110	2587.3427
-109	2554.2761
-108	2500.4587
-107	2331.1411
-106	2356.0709
-105	2397.8305
-104	2277.8719
-103	2302.5522
-102	2409.7568
-101	2426.0663
-100	2516.1601
-99	2740.6207
-98	2606.0875
-97	2415.1161
-96	2564.3951
-95	2518.0221
-94	2468.4965
-93	2354.8398
-92	2404.142
-91	2476.3047
-90	2488.851
-89	2653.6024
-88	2744.1515
-87	2700.9826
-86	2526.7228
-85	2470.5564
-84	2380.1984
-83	2431.883
-82	2458.7344
-81	2490.6425
-80	2514.8819
-79	2648.5971
-78	2747.27
-77	2874.6229
-76	2651.0285
-75	2615.554
-74	2510.5622
-73	2451.429
-72	2484.9128
-71	2443.1296
-70	2443.8617
-69	2512.3995
-68	2589.8301
-67	2727.4482
-66	2854.6612
-65	2755.0841
-64	2641.9027
-63	2547.3246
-62	2444.6962
-61	2412.8149
-60	2419.5498
-59	2427.1823
-58	2436.3491
-57	2657.2204
-56	2811.5407
-55	2870.5075
-54	2761.3203
-53	2665.1292
-52	2545.7459
-51	2526.4117
-50	2582.4879
-49	2433.5433
-48	2454.1268
-47	2419.452
-46	2529.083
-45	2656.8054
-44	2796.6465
-43	2563.1129
-42	2669.0545
-41	2441.8585
-40	2465.3443
-39	2444.1723
-38	2573.1005
-37	2553.696
-36	2717.4104
-35	2758.9993
-34	2819.0257
-33	2991.5262
-32	2886.5907
-31	2812.3096
-30	2722.7204
-29	2710.4619
-28	2911.3727
-27	2940.0018
-26	3243.0627
-25	3338.6652
-24	3263.0338
-23	2751.1288
-22	2936.4798
-21	2765.8277
-20	2620.8425
-19	2513.14
-18	2655.9184
-17	2603.4147
-16	2737.1468
-15	2932.8072
-14	2927.2177
-13	3200.302
-12	3551.7943
-11	3769.8266
-10	3738.282
-9	3818.7626
-8	3540.972
-7	3689.4391
-6	3799.1386
-5	4135.1631
-4	4349.4499
-3	5069.7546
-2	6240.047
-1	7477.8257
0	72927.3457
1	7477.8257
2	6240.047
3	5069.7546
4	4349.4499
5	4135.1631
6	3799.1386
7	3689.4391
8	3540.972
9	3818.7626
10	3738.282
11	3769.8266
12	3551.7943
13	3200.302
14	2927.2177
15	2932.8072
16	2737.1468
17	2603.4147
18	2655.9184
19	2513.14
20	2620.8425
21	2765.8277
22	2936.4798
23	2751.1288
24	3263.0338
25	3338.6652
26	3243.0627
27	2940.0018
28	2911.3727
29	2710.4619
30	2722.7204
31	2812.3096
32	2886.5907
33	2991.5262
34	2819.0257
35	2758.9993
36	2717.4104
37	2553.696
38	2573.1005
39	2444.1723
40	2465.3443
41	2441.8585
42	2669.0545
43	2563.1129
44	2796.6465
45	2656.8054
46	2529.083
47	2419.452
48	2454.1268
49	2433.5433
50	2582.4879
51	2526.4117
52	2545.7459
53	2665.1292
54	2761.3203
55	2870.5075
56	2811.5407
57	2657.2204
58	2436.3491
59	2427.1823
60	2419.5498
61	2412.8149
62	2444.6962
63	2547.3246
64	2641.9027
65	2755.0841
66	2854.6612
67	2727.4482
68	2589.8301
69	2512.3995
70	2443.8617
71	2443.1296
72	2484.9128
73	2451.429
74	2510.5622
75	2615.554
76	2651.0285
77	2874.6229
78	2747.27
79	2648.5971
80	2514.8819
81	2490.6425
82	2458.7344
83	2431.883
84	2380.1984
85	2470.5564
86	2526.7228
87	2700.9826
88	2744.1515
89	2653.6024
90	2488.851
91	2476.3047
92	2404.142
93	2354.8398
94	2468.4965
95	2518.0221
96	2564.3951
97	2415.1161
98	2606.0875
99	2740.6207
100	2516.1601
101	2426.0663
102	2409.7568
103	2302.5522
104	2277.8719
105	2397.8305
106	2356.0709
107	2331.1411
108	2500.4587
109	2554.2761
110	2587.3427
111	2522.9028
112	2351.602
113	2293.0494
114	2348.3674
115	2330.0654
116	2362.5844
117	2413.8487
118	2380.9956
119	2464.7609
120	2620.0746
121	2693.3258
122	2612.6336
123	2548.5455
124	2426.1954
125	2375.8896
126	2374.5268
127	2251.4801
128	2304.0991
129	2360.9527
130	2410.4417
131	2536.0873
132	2596.8576
133	2435.0673
134	2375.66
135	2255.8966
136	2225.8399
137	2204.2119
138	2360.1019
139	2274.0666
140	2329.9877
141	2501.6863
142	2575.0659
143	2603.9158
144	2553.0341
145	2379.3377
146	2371.5517
147	2259.934
148	2238.638
149	2200.4093
150	2216.5433
151	2261.5849
152	2285.7931
153	2440.9201
154	2479.5614
155	2414.2576
156	2333.179
157	2161.3573
158	2178.1865
159	2240.7707
160	2197.5023
161	2145.5321
162	2297.9175
163	2327.5989
164	2399.584
165	2400.0332
166	2330.3858
167	2271.3015
168	2292.4986
169	2253.8453
170	2296.9007
171	2292.8897
172	2227.0599
173	2222.8106
174	2332.6332
175	2341.3524
176	2446.9913
177	2424.8541
178	2303.6562
179	2235.6401
180	2311.3225
181	2256.9722
182	2217.1584
183	2265.7896
184	2284.4867
185	2329.5079
186	2430.9445
187	2433.537
188	2370.3108
189	2212.7524
190	2160.9279
191	2138.7951
192	2264.1731
193	2223.5614
194	2178.7568
195	2210.3526
196	2314.4752
197	2380.9705
198	2543.5905
199	2319.7912
200	1106.775
