Position	Value
-200	6808.97
-199	6853.68
-198	7029.07
-197	7000.62
-196	6789.11
-195	6876.76
-194	6912.82
-193	6767.83
-192	6911.68
-191	6932.42
-190	6956.59
-189	6912.11
-188	6958.85
-187	6917.43
-186	7103.19
-185	6980.11
-184	7024.05
-183	7019.1
-182	6893.26
-181	7054.81
-180	6846.31
-179	6892.84
-178	6808.58
-177	6870.46
-176	6961.85
-175	6936.95
-174	6991.7
-173	6978.73
-172	6989.38
-171	7034.44
-170	7004.28
-169	6881.98
-168	6955.5
-167	6834.6
-166	6950.02
-165	7071.78
-164	7108.49
-163	6956.15
-162	6988.64
-161	7053.66
-160	7031.51
-159	7041.2
-158	7067.12
-157	7007.49
-156	7155.15
-155	7020.27
-154	6985.41
-153	7083.17
-152	7261.39
-151	7068.58
-150	7185.7
-149	7183.82
-148	7124.38
-147	7251.3
-146	7016.14
-145	7217.6
-144	6995.75
-143	7128.6
-142	6941
-141	6979.74
-140	6828.57
-139	6926.62
-138	6942.8
-137	6967.61
-136	7103.52
-135	7005.17
-134	7088
-133	7046.63
-132	7051.52
-131	7002.18
-130	7058.58
-129	6907.33
-128	7030
-127	6995.44
-126	7000.39
-125	6980.45
-124	6984.14
-123	6977.34
-122	7052.59
-121	7032.25
-120	7070.07
-119	7008.76
-118	6927.74
-117	7169.31
-116	6993.12
-115	7069.23
-114	7202.05
-113	6972.82
-112	6988.87
-111	7076.93
-110	7273.37
-109	7117.86
-108	7249.82
-107	7109.49
-106	7195.38
-105	7199.86
-104	7089.39
-103	7150.7
-102	7108.9
-101	7300.05
-100	7097.32
-99	7161.7
-98	7143.58
-97	7078.83
-96	7228.74
-95	7228.2
-94	7364.39
-93	7222.4
-92	7100.99
-91	7136
-90	7323.74
-89	7436.27
-88	7403.02
-87	7432.91
-86	7586.83
-85	7339.15
-84	7524.24
-83	7381.78
-82	7350.48
-81	7590.88
-80	7213.01
-79	7274.73
-78	7139.33
-77	7191.12
-76	7069.14
-75	7157.35
-74	7150.94
-73	6993.1
-72	7274.98
-71	7097.06
-70	7118.48
-69	7102.02
-68	7261.22
-67	7225.64
-66	7190.11
-65	7172.75
-64	7291.88
-63	7383.62
-62	7501.07
-61	7478.34
-60	7515.63
-59	7775.93
-58	7714.77
-57	7727.57
-56	7842.53
-55	7862.07
-54	7459.02
-53	7685.87
-52	7575.2
-51	7093.02
-50	7157.97
-49	6977.77
-48	6813.38
-47	7028.21
-46	6948.07
-45	6929.45
-44	6771.81
-43	6764.76
-42	7024.08
-41	6880.51
-40	7022.39
-39	7022.47
-38	7199.4
-37	7178.37
-36	7380.29
-35	7515.23
-34	7705.88
-33	7914.26
-32	7948.1
-31	8405.26
-30	8903.66
-29	9004.65
-28	9404.67
-27	9247.15
-26	8892.92
-25	8524.4
-24	7827.35
-23	6838.33
-22	6885.61
-21	7175.9
-20	7290.1
-19	7414.21
-18	7718.88
-17	7807.21
-16	8258.37
-15	8472.85
-14	8424.31
-13	8746.08
-12	8809.41
-11	9323.73
-10	9418.34
-9	9820.25
-8	10471.8
-7	10837.8
-6	11862
-5	13355.6
-4	13456.3
-3	15145.2
-2	18481
-1	18137.5
0	141427
1	18137.5
2	18481
3	15145.2
4	13456.3
5	13355.6
6	11862
7	10837.8
8	10471.8
9	9820.25
10	9418.34
11	9323.73
12	8809.41
13	8746.08
14	8424.31
15	8472.85
16	8258.37
17	7807.21
18	7718.88
19	7414.21
20	7290.1
21	7175.9
22	6885.61
23	6838.33
24	7827.35
25	8524.4
26	8892.92
27	9247.15
28	9404.67
29	9004.65
30	8903.66
31	8405.26
32	7948.1
33	7914.26
34	7705.88
35	7515.23
36	7380.29
37	7178.37
38	7199.4
39	7022.47
40	7022.39
41	6880.51
42	7024.08
43	6764.76
44	6771.81
45	6929.45
46	6948.07
47	7028.21
48	6813.38
49	6977.77
50	7157.97
51	7093.02
52	7575.2
53	7685.87
54	7459.02
55	7862.07
56	7842.53
57	7727.57
58	7714.77
59	7775.93
60	7515.63
61	7478.34
62	7501.07
63	7383.62
64	7291.88
65	7172.75
66	7190.11
67	7225.64
68	7261.22
69	7102.02
70	7118.48
71	7097.06
72	7274.98
73	6993.1
74	7150.94
75	7157.35
76	7069.14
77	7191.12
78	7139.33
79	7274.73
80	7213.01
81	7590.88
82	7350.48
83	7381.78
84	7524.24
85	7339.15
86	7586.83
87	7432.91
88	7403.02
89	7436.27
90	7323.74
91	7136
92	7100.99
93	7222.4
94	7364.39
95	7228.2
96	7228.74
97	7078.83
98	7143.58
99	7161.7
100	7097.32
101	7300.05
102	7108.9
103	7150.7
104	7089.39
105	7199.86
106	7195.38
107	7109.49
108	7249.82
109	7117.86
110	7273.37
111	7076.93
112	6988.87
113	6972.82
114	7202.05
115	7069.23
116	6993.12
117	7169.31
118	6927.74
119	7008.76
120	7070.07
121	7032.25
122	7052.59
123	6977.34
124	6984.14
125	6980.45
126	7000.39
127	6995.44
128	7030
129	6907.33
130	7058.58
131	7002.18
132	7051.52
133	7046.63
134	7088
135	7005.17
136	7103.52
137	6967.61
138	6942.8
139	6926.62
140	6828.57
141	6979.74
142	6941
143	7128.6
144	6995.75
145	7217.6
146	7016.14
147	7251.3
148	7124.38
149	7183.82
150	7185.7
151	7068.58
152	7261.39
153	7083.17
154	6985.41
155	7020.27
156	7155.15
157	7007.49
158	7067.12
159	7041.2
160	7031.51
161	7053.66
162	6988.64
163	6956.15
164	7108.49
165	7071.78
166	6950.02
167	6834.6
168	6955.5
169	6881.98
170	7004.28
171	7034.44
172	6989.38
173	6978.73
174	6991.7
175	6936.95
176	6961.85
177	6870.46
178	6808.58
179	6892.84
180	6846.31
181	7054.81
182	6893.26
183	7019.1
184	7024.05
185	6980.11
186	7103.19
187	6917.43
188	6958.85
189	6912.11
190	6956.59
191	6932.42
192	6911.68
193	6767.83
194	6912.82
195	6876.76
196	6789.11
197	7000.62
198	7029.07
199	6853.68
200	6808.97
