Position	Value
-200	8.2391
-199	13.2419
-198	15.1518
-197	14.6951
-196	13.2639
-195	12.1479
-194	16.7744
-193	19.755
-192	19.6994
-191	17.5475
-190	22.597
-189	19.2046
-188	19.4111
-187	24.5693
-186	24.1378
-185	22.0529
-184	21.2085
-183	18.1299
-182	16.3714
-181	18.2418
-180	16.549
-179	18.3503
-178	20.4765
-177	20.546
-176	24.4082
-175	26.6963
-174	26.5801
-173	18.8952
-172	21.6021
-171	17.9245
-170	18.418
-169	19.4098
-168	16.5909
-167	22.7087
-166	21.3833
-165	23.4867
-164	20.9706
-163	14.1544
-162	17.3748
-161	18.9319
-160	17.7239
-159	16.4113
-158	19.6977
-157	21.4212
-156	20.3045
-155	17.679
-154	23.2349
-153	21.49
-152	24.456
-151	23.5304
-150	22.4181
-149	22.9985
-148	27.009
-147	20.1606
-146	25.2066
-145	22.8694
-144	15.6405
-143	25.7533
-142	22.9527
-141	22.8133
-140	21.2263
-139	21.4556
-138	19.8093
-137	16.5337
-136	14.9664
-135	16.3703
-134	13.9763
-133	16.7957
-132	16.6047
-131	15.2313
-130	17.5141
-129	18.7248
-128	16.7187
-127	18.9787
-126	22.6226
-125	19.1305
-124	17.2645
-123	12.6283
-122	15.3998
-121	17.0586
-120	21.0661
-119	22.2239
-118	20.3501
-117	24.0162
-116	26.2902
-115	29.1243
-114	20.4988
-113	22.5121
-112	22.5701
-111	19.1141
-110	18.943
-109	22.78
-108	19.2747
-107	19.0651
-106	20.6549
-105	18.9671
-104	21.6373
-103	18.253
-102	23.8937
-101	23.6102
-100	22.7641
-99	21.5968
-98	17.8949
-97	20.4552
-96	21.3718
-95	16.0712
-94	19.8094
-93	17.171
-92	16.4804
-91	19.945
-90	23.7211
-89	21.7479
-88	18.919
-87	19.0673
-86	20.4523
-85	22.0458
-84	21.2865
-83	19.5729
-82	22.4149
-81	27.523
-80	28.8032
-79	24.9711
-78	22.7954
-77	24.0155
-76	19.6389
-75	23.6976
-74	14.8466
-73	16.9546
-72	17.504
-71	19.6068
-70	19.2665
-69	19.0907
-68	22.2879
-67	26.9445
-66	28.2569
-65	26.6926
-64	20.2288
-63	23.3752
-62	18.8119
-61	20.6421
-60	22.5736
-59	27.1786
-58	21.9768
-57	29.8972
-56	25.5143
-55	31.7495
-54	30.5768
-53	25.6308
-52	19.1972
-51	21.2628
-50	21.6419
-49	26.4229
-48	23.8513
-47	23.7477
-46	23.8695
-45	25.218
-44	36.4988
-43	29.7838
-42	26.9617
-41	27.3515
-40	23.2962
-39	23.3951
-38	27.0769
-37	33.0479
-36	25.7508
-35	37.7227
-34	27.1409
-33	28.9473
-32	42.4743
-31	37.6438
-30	27.5372
-29	34.5659
-28	32.7873
-27	33.7252
-26	32.6624
-25	29.8883
-24	49.5612
-23	32.0626
-22	44.9683
-21	50.9473
-20	33.5989
-19	35.8979
-18	41.9365
-17	37.6949
-16	40.3482
-15	49.4358
-14	48.021
-13	56.5813
-12	56.2621
-11	57.3863
-10	72.63
-9	51.3412
-8	63.9368
-7	67.8869
-6	78.4734
-5	113.0014
-4	137.3658
-3	238.8777
-2	313.9621
-1	468.5612
0	7879.7835
1	468.5612
2	313.9621
3	238.8777
4	137.3658
5	113.0014
6	78.4734
7	67.8869
8	63.9368
9	51.3412
10	72.63
11	57.3863
12	56.2621
13	56.5813
14	48.021
15	49.4358
16	40.3482
17	37.6949
18	41.9365
19	35.8979
20	33.5989
21	50.9473
22	44.9683
23	32.0626
24	49.5612
25	29.8883
26	32.6624
27	33.7252
28	32.7873
29	34.5659
30	27.5372
31	37.6438
32	42.4743
33	28.9473
34	27.1409
35	37.7227
36	25.7508
37	33.0479
38	27.0769
39	23.3951
40	23.2962
41	27.3515
42	26.9617
43	29.7838
44	36.4988
45	25.218
46	23.8695
47	23.7477
48	23.8513
49	26.4229
50	21.6419
51	21.2628
52	19.1972
53	25.6308
54	30.5768
55	31.7495
56	25.5143
57	29.8972
58	21.9768
59	27.1786
60	22.5736
61	20.6421
62	18.8119
63	23.3752
64	20.2288
65	26.6926
66	28.2569
67	26.9445
68	22.2879
69	19.0907
70	19.2665
71	19.6068
72	17.504
73	16.9546
74	14.8466
75	23.6976
76	19.6389
77	24.0155
78	22.7954
79	24.9711
80	28.8032
81	27.523
82	22.4149
83	19.5729
84	21.2865
85	22.0458
86	20.4523
87	19.0673
88	18.919
89	21.7479
90	23.7211
91	19.945
92	16.4804
93	17.171
94	19.8094
95	16.0712
96	21.3718
97	20.4552
98	17.8949
99	21.5968
100	22.7641
101	23.6102
102	23.8937
103	18.253
104	21.6373
105	18.9671
106	20.6549
107	19.0651
108	19.2747
109	22.78
110	18.943
111	19.1141
112	22.5701
113	22.5121
114	20.4988
115	29.1243
116	26.2902
117	24.0162
118	20.3501
119	22.2239
120	21.0661
121	17.0586
122	15.3998
123	12.6283
124	17.2645
125	19.1305
126	22.6226
127	18.9787
128	16.7187
129	18.7248
130	17.5141
131	15.2313
132	16.6047
133	16.7957
134	13.9763
135	16.3703
136	14.9664
137	16.5337
138	19.8093
139	21.4556
140	21.2263
141	22.8133
142	22.9527
143	25.7533
144	15.6405
145	22.8694
146	25.2066
147	20.1606
148	27.009
149	22.9985
150	22.4181
151	23.5304
152	24.456
153	21.49
154	23.2349
155	17.679
156	20.3045
157	21.4212
158	19.6977
159	16.4113
160	17.7239
161	18.9319
162	17.3748
163	14.1544
164	20.9706
165	23.4867
166	21.3833
167	22.7087
168	16.5909
169	19.4098
170	18.418
171	17.9245
172	21.6021
173	18.8952
174	26.5801
175	26.6963
176	24.4082
177	20.546
178	20.4765
179	18.3503
180	16.549
181	18.2418
182	16.3714
183	18.1299
184	21.2085
185	22.0529
186	24.1378
187	24.5693
188	19.4111
189	19.2046
190	22.597
191	17.5475
192	19.6994
193	19.755
194	16.7744
195	12.1479
196	13.2639
197	14.6951
198	15.1518
199	13.2419
200	8.2391
