Position	Value
-200	3985.5364
-199	8049.3459
-198	8245.4872
-197	7983.7216
-196	7850.3869
-195	7801.9356
-194	7624.4353
-193	7582.1671
-192	7664.2017
-191	7632.7584
-190	7675.0775
-189	7990.3421
-188	7962.3595
-187	8057.1546
-186	7912.8684
-185	7891.9909
-184	7596.2757
-183	7690.8113
-182	7678.1638
-181	7744.143
-180	7757.732
-179	7660.7423
-178	7781.7232
-177	8059.1595
-176	8253.515
-175	8208.7408
-174	7972.9834
-173	8039.8541
-172	8010.0968
-171	7937.6779
-170	7881.1698
-169	7806.5316
-168	7897.4089
-167	7940.9468
-166	8015.6943
-165	8176.5808
-164	8080.2276
-163	7875.2372
-162	7743.6925
-161	7804.0579
-160	7781.3697
-159	7943.1463
-158	7952.3335
-157	7960.4505
-156	8130.0826
-155	8228.6754
-154	8166.602
-153	8175.9135
-152	8053.3075
-151	7979.078
-150	8019.5521
-149	7917.2791
-148	8106.1279
-147	8063.1774
-146	8082.3208
-145	8232.4529
-144	8495.5382
-143	8521.4685
-142	8488.675
-141	8375.0803
-140	8308.8552
-139	8224.7752
-138	8032.0874
-137	7928.4759
-136	8024.7194
-135	7963.1994
-134	8068.266
-133	8152.2225
-132	8331.1398
-131	8221.6788
-130	8254.1719
-129	8273.3603
-128	8343.9211
-127	8302.119
-126	8263.8488
-125	8304.0487
-124	8388.4901
-123	8591.1082
-122	8503.2167
-121	8802.1635
-120	8444.6498
-119	8359.1721
-118	8128.666
-117	8401.3924
-116	8287.3499
-115	8181.3658
-114	8023.869
-113	8186.1488
-112	8291.0329
-111	8555.2195
-110	8701.1274
-109	8598.5171
-108	8542.76
-107	8396.3901
-106	8417.2153
-105	8345.2658
-104	8222.0806
-103	8275.7593
-102	8355.461
-101	8433.4188
-100	8560.9286
-99	8680.8657
-98	8610.3469
-97	8443.7477
-96	8363.5724
-95	8263.8953
-94	8452.5292
-93	8403.7447
-92	8295.3373
-91	8228.6996
-90	8433.7663
-89	8554.7223
-88	8915.129
-87	8839.2402
-86	8626.7321
-85	8523.9794
-84	8802.9778
-83	8719.0905
-82	8761.1177
-81	8767.3664
-80	8952.3323
-79	8912.7061
-78	9256.3706
-77	9465.1104
-76	9323.2498
-75	9172.1025
-74	9084.7044
-73	9070.0969
-72	9162.4159
-71	9233.6397
-70	9422.9771
-69	9419.4721
-68	9517.178
-67	9745.4183
-66	10047.9703
-65	9840.4791
-64	9749.0655
-63	9488.0075
-62	9313.2977
-61	9340.9654
-60	9525.9935
-59	9547.3525
-58	9788.3898
-57	9881.097
-56	10157.949
-55	10405.7367
-54	10522.1667
-53	10226.515
-52	10133.2713
-51	9997.2097
-50	9904.6716
-49	9889.136
-48	10092.507
-47	10286.5808
-46	10551.9842
-45	10935.732
-44	11098.183
-43	11212.5785
-42	10782.6819
-41	10778.3744
-40	10856.1511
-39	10975.4772
-38	10783.0084
-37	10935.7063
-36	11183.4267
-35	11678.1179
-34	12092.9934
-33	12372.8715
-32	12485.9234
-31	12579.7784
-30	12219.459
-29	12093.7394
-28	12467.9466
-27	12590.5812
-26	12866.4907
-25	12839.305
-24	13456.6758
-23	13585.8928
-22	13962.6997
-21	14269.1936
-20	14646.1263
-19	14623.7781
-18	14846.6934
-17	15723.2531
-16	16889.3445
-15	17883.6057
-14	18608.1933
-13	19112.5506
-12	20317.2293
-11	21186.1714
-10	21302.2829
-9	21780.5507
-8	23189.5374
-7	23966.8296
-6	25659.1694
-5	26950.3994
-4	30050.2211
-3	34107.4145
-2	41437.3364
-1	49670.6503
0	258620.6585
1	49670.6503
2	41437.3364
3	34107.4145
4	30050.2211
5	26950.3994
6	25659.1694
7	23966.8296
8	23189.5374
9	21780.5507
10	21302.2829
11	21186.1714
12	20317.2293
13	19112.5506
14	18608.1933
15	17883.6057
16	16889.3445
17	15723.2531
18	14846.6934
19	14623.7781
20	14646.1263
21	14269.1936
22	13962.6997
23	13585.8928
24	13456.6758
25	12839.305
26	12866.4907
27	12590.5812
28	12467.9466
29	12093.7394
30	12219.459
31	12579.7784
32	12485.9234
33	12372.8715
34	12092.9934
35	11678.1179
36	11183.4267
37	10935.7063
38	10783.0084
39	10975.4772
40	10856.1511
41	10778.3744
42	10782.6819
43	11212.5785
44	11098.183
45	10935.732
46	10551.9842
47	10286.5808
48	10092.507
49	9889.136
50	9904.6716
51	9997.2097
52	10133.2713
53	10226.515
54	10522.1667
55	10405.7367
56	10157.949
57	9881.097
58	9788.3898
59	9547.3525
60	9525.9935
61	9340.9654
62	9313.2977
63	9488.0075
64	9749.0655
65	9840.4791
66	10047.9703
67	9745.4183
68	9517.178
69	9419.4721
70	9422.9771
71	9233.6397
72	9162.4159
73	9070.0969
74	9084.7044
75	9172.1025
76	9323.2498
77	9465.1104
78	9256.3706
79	8912.7061
80	8952.3323
81	8767.3664
82	8761.1177
83	8719.0905
84	8802.9778
85	8523.9794
86	8626.7321
87	8839.2402
88	8915.129
89	8554.7223
90	8433.7663
91	8228.6996
92	8295.3373
93	8403.7447
94	8452.5292
95	8263.8953
96	8363.5724
97	8443.7477
98	8610.3469
99	8680.8657
100	8560.9286
101	8433.4188
102	8355.461
103	8275.7593
104	8222.0806
105	8345.2658
106	8417.2153
107	8396.3901
108	8542.76
109	8598.5171
110	8701.1274
111	8555.2195
112	8291.0329
113	8186.1488
114	8023.869
115	8181.3658
116	8287.3499
117	8401.3924
118	8128.666
119	8359.1721
120	8444.6498
121	8802.1635
122	8503.2167
123	8591.1082
124	8388.4901
125	8304.0487
126	8263.8488
127	8302.119
128	8343.9211
129	8273.3603
130	8254.1719
131	8221.6788
132	8331.1398
133	8152.2225
134	8068.266
135	7963.1994
136	8024.7194
137	7928.4759
138	8032.0874
139	8224.7752
140	8308.8552
141	8375.0803
142	8488.675
143	8521.4685
144	8495.5382
145	8232.4529
146	8082.3208
147	8063.1774
148	8106.1279
149	7917.2791
150	8019.5521
151	7979.078
152	8053.3075
153	8175.9135
154	8166.602
155	8228.6754
156	8130.0826
157	7960.4505
158	7952.3335
159	7943.1463
160	7781.3697
161	7804.0579
162	7743.6925
163	7875.2372
164	8080.2276
165	8176.5808
166	8015.6943
167	7940.9468
168	7897.4089
169	7806.5316
170	7881.1698
171	7937.6779
172	8010.0968
173	8039.8541
174	7972.9834
175	8208.7408
176	8253.515
177	8059.1595
178	7781.7232
179	7660.7423
180	7757.732
181	7744.143
182	7678.1638
183	7690.8113
184	7596.2757
185	7891.9909
186	7912.8684
187	8057.1546
188	7962.3595
189	7990.3421
190	7675.0775
191	7632.7584
192	7664.2017
193	7582.1671
194	7624.4353
195	7801.9356
196	7850.3869
197	7983.7216
198	8245.4872
199	8049.3459
200	3985.5364
