Position	Value
-200	0.8405
-199	1.2786
-198	2.2629
-197	1.4291
-196	1.3568
-195	1.4594
-194	2.7547
-193	2.8069
-192	3.2625
-191	3.5096
-190	2.7338
-189	1.2736
-188	1.7096
-187	2.7934
-186	3.6918
-185	2.8389
-184	4.8699
-183	1.4928
-182	1.9997
-181	1.4029
-180	3.4833
-179	4.774
-178	4.9101
-177	2.4374
-176	5.3077
-175	4.0158
-174	2.2767
-173	6.3253
-172	2.2976
-171	2.2936
-170	2.6461
-169	3.4733
-168	4.9752
-167	5.0934
-166	6.3285
-165	3.9694
-164	4.6249
-163	3.7071
-162	2.5942
-161	5.2746
-160	4.5097
-159	3.2309
-158	2.3863
-157	1.6342
-156	3.0267
-155	2.5945
-154	2.0675
-153	1.701
-152	4.8523
-151	2.8972
-150	2.2198
-149	2.9379
-148	3.5593
-147	1.6402
-146	1.8902
-145	2.8139
-144	3.0118
-143	3.5947
-142	3.7822
-141	3.0628
-140	5.2536
-139	1.7093
-138	2.7975
-137	2.7031
-136	2.6519
-135	2.7986
-134	2.2786
-133	3.1318
-132	4.0055
-131	3.2427
-130	3.0336
-129	3.02
-128	3.4674
-127	2.0369
-126	2.2665
-125	2.2504
-124	4.8456
-123	4.4109
-122	4.2372
-121	2.1978
-120	4.6252
-119	2.8778
-118	1.934
-117	2.4018
-116	3.6809
-115	3.6549
-114	4.2872
-113	3.1823
-112	2.4562
-111	1.9086
-110	2.4012
-109	2.1909
-108	2.4992
-107	1.2894
-106	4.4152
-105	2.0938
-104	2.8961
-103	2.5692
-102	3.5274
-101	4.4827
-100	5.0483
-99	5.641
-98	3.7113
-97	4.0668
-96	2.5826
-95	2.1743
-94	2.8873
-93	3.8936
-92	1.7739
-91	1.8275
-90	1.9329
-89	2.2466
-88	2.8897
-87	5.1286
-86	6.0542
-85	5.7629
-84	4.1684
-83	5.7021
-82	6.6674
-81	4.2263
-80	7.1918
-79	4.8822
-78	2.559
-77	5.8645
-76	5.6762
-75	3.0839
-74	3.8361
-73	2.0877
-72	4.0772
-71	2.6831
-70	1.4813
-69	1.7215
-68	3.0596
-67	4.2411
-66	4.0938
-65	2.7309
-64	2.0067
-63	3.2357
-62	2.2011
-61	2.6576
-60	1.9565
-59	4.8
-58	5.032
-57	8.2554
-56	4.5346
-55	2.5129
-54	3.0193
-53	2.1728
-52	2.2365
-51	2.6265
-50	3.6381
-49	4.0385
-48	3.8493
-47	6.111
-46	12.0402
-45	10.9525
-44	12.9513
-43	4.3841
-42	6.2492
-41	5.2483
-40	4.6344
-39	1.1003
-38	5.3584
-37	5.6979
-36	5.3293
-35	5.443
-34	4.0835
-33	4.024
-32	4.9832
-31	6.7114
-30	5.8617
-29	6.0863
-28	4.3398
-27	4.4104
-26	3.7869
-25	3.7064
-24	8.534
-23	8.2363
-22	6.9136
-21	7.9928
-20	8.1257
-19	8.8202
-18	6.0306
-17	8.2358
-16	9.6454
-15	10.37
-14	10.4894
-13	10.0811
-12	6.9824
-11	10.2132
-10	8.167
-9	11.19
-8	12.0843
-7	11.0764
-6	5.8695
-5	18.6056
-4	27.6702
-3	29.668
-2	44.9361
-1	80.1222
0	2832.1159
1	80.1222
2	44.9361
3	29.668
4	27.6702
5	18.6056
6	5.8695
7	11.0764
8	12.0843
9	11.19
10	8.167
11	10.2132
12	6.9824
13	10.0811
14	10.4894
15	10.37
16	9.6454
17	8.2358
18	6.0306
19	8.8202
20	8.1257
21	7.9928
22	6.9136
23	8.2363
24	8.534
25	3.7064
26	3.7869
27	4.4104
28	4.3398
29	6.0863
30	5.8617
31	6.7114
32	4.9832
33	4.024
34	4.0835
35	5.443
36	5.3293
37	5.6979
38	5.3584
39	1.1003
40	4.6344
41	5.2483
42	6.2492
43	4.3841
44	12.9513
45	10.9525
46	12.0402
47	6.111
48	3.8493
49	4.0385
50	3.6381
51	2.6265
52	2.2365
53	2.1728
54	3.0193
55	2.5129
56	4.5346
57	8.2554
58	5.032
59	4.8
60	1.9565
61	2.6576
62	2.2011
63	3.2357
64	2.0067
65	2.7309
66	4.0938
67	4.2411
68	3.0596
69	1.7215
70	1.4813
71	2.6831
72	4.0772
73	2.0877
74	3.8361
75	3.0839
76	5.6762
77	5.8645
78	2.559
79	4.8822
80	7.1918
81	4.2263
82	6.6674
83	5.7021
84	4.1684
85	5.7629
86	6.0542
87	5.1286
88	2.8897
89	2.2466
90	1.9329
91	1.8275
92	1.7739
93	3.8936
94	2.8873
95	2.1743
96	2.5826
97	4.0668
98	3.7113
99	5.641
100	5.0483
101	4.4827
102	3.5274
103	2.5692
104	2.8961
105	2.0938
106	4.4152
107	1.2894
108	2.4992
109	2.1909
110	2.4012
111	1.9086
112	2.4562
113	3.1823
114	4.2872
115	3.6549
116	3.6809
117	2.4018
118	1.934
119	2.8778
120	4.6252
121	2.1978
122	4.2372
123	4.4109
124	4.8456
125	2.2504
126	2.2665
127	2.0369
128	3.4674
129	3.02
130	3.0336
131	3.2427
132	4.0055
133	3.1318
134	2.2786
135	2.7986
136	2.6519
137	2.7031
138	2.7975
139	1.7093
140	5.2536
141	3.0628
142	3.7822
143	3.5947
144	3.0118
145	2.8139
146	1.8902
147	1.6402
148	3.5593
149	2.9379
150	2.2198
151	2.8972
152	4.8523
153	1.701
154	2.0675
155	2.5945
156	3.0267
157	1.6342
158	2.3863
159	3.2309
160	4.5097
161	5.2746
162	2.5942
163	3.7071
164	4.6249
165	3.9694
166	6.3285
167	5.0934
168	4.9752
169	3.4733
170	2.6461
171	2.2936
172	2.2976
173	6.3253
174	2.2767
175	4.0158
176	5.3077
177	2.4374
178	4.9101
179	4.774
180	3.4833
181	1.4029
182	1.9997
183	1.4928
184	4.8699
185	2.8389
186	3.6918
187	2.7934
188	1.7096
189	1.2736
190	2.7338
191	3.5096
192	3.2625
193	2.8069
194	2.7547
195	1.4594
196	1.3568
197	1.4291
198	2.2629
199	1.2786
200	0.8405
