Position	Value
-200	87603.3709
-199	175027.9311
-198	174465.8308
-197	175446.6275
-196	175233.134
-195	175318.3717
-194	175626.4816
-193	175069.2558
-192	175653.5426
-191	176382.7162
-190	175214.1268
-189	175559.9387
-188	177118.5637
-187	176823.2486
-186	177191.894
-185	176315.0419
-184	176086.5477
-183	175747.344
-182	175227.7252
-181	175255.4294
-180	176814.5321
-179	176939.8664
-178	176720.1666
-177	177281.4854
-176	177566.8975
-175	176976.3588
-174	176896.7989
-173	177699.4637
-172	178949.2524
-171	178500.0644
-170	179491.4407
-169	179310.6782
-168	177811.9198
-167	179076.5983
-166	179789.6659
-165	179685.4146
-164	180866.5417
-163	180209.277
-162	179984.4677
-161	179339.194
-160	178575.6877
-159	177737.2269
-158	179845.8029
-157	177677.7171
-156	179031.9013
-155	179130.7449
-154	179540.406
-153	180127.2056
-152	178857.893
-151	179220.396
-150	179202.4401
-149	178599.5405
-148	178737.9538
-147	179340.0108
-146	178309.4014
-145	178529.226
-144	180473.187
-143	178855.3635
-142	178167.8484
-141	179592.4363
-140	177292.6305
-139	178919.767
-138	178609.3382
-137	178363.9289
-136	178187.6163
-135	178009.9959
-134	178531.0568
-133	179184.8607
-132	180720.7414
-131	180226.4267
-130	179160.0047
-129	179699.0299
-128	179042.846
-127	178379.6549
-126	179618.5472
-125	178327.0529
-124	179060.7228
-123	179140.7358
-122	178429.173
-121	180216.3423
-120	180376.3602
-119	180615.073
-118	178761.67
-117	181465.2234
-116	179870.2263
-115	181449.0981
-114	182357.6598
-113	181479.9511
-112	182338.2674
-111	181486.3272
-110	181164.8278
-109	181233.4851
-108	181995.2641
-107	182277.8279
-106	182478.6492
-105	182467.5051
-104	180434.4964
-103	180939.8513
-102	180724.5099
-101	181531.769
-100	180648.2711
-99	181648.5902
-98	182439.449
-97	181586.2725
-96	181700.1257
-95	181289.7332
-94	181205.993
-93	182869.8126
-92	182552.7622
-91	182025.4471
-90	182723.9187
-89	184107.3842
-88	184215.8969
-87	184442.1935
-86	185292.4835
-85	184400.4303
-84	185047.7195
-83	184759.4286
-82	184481.7395
-81	185018.3077
-80	183840.0828
-79	183503.2453
-78	182881.343
-77	181604.005
-76	179700.3236
-75	181049.6675
-74	178934.9689
-73	181213.3023
-72	180190.6106
-71	181275.6798
-70	181007.4985
-69	181604.3468
-68	180798.9573
-67	181585.2473
-66	183411.0754
-65	184028.9712
-64	185481.9081
-63	186670.005
-62	186487.7195
-61	187297.0343
-60	187886.3993
-59	188641.4404
-58	191364.8001
-57	193451.9389
-56	193907.6734
-55	194836.1605
-54	193868.2017
-53	191396.0126
-52	189274.0357
-51	187226.3778
-50	183249.0533
-49	181602.4909
-48	180068.9952
-47	179368.3426
-46	178899.9389
-45	180106.5758
-44	179374.0381
-43	179950.8873
-42	180436.5695
-41	179761.9113
-40	181595.815
-39	182520.4263
-38	184355.5216
-37	185974.5849
-36	189351.9459
-35	189872.3575
-34	192883.6808
-33	197557.293
-32	200482.7862
-31	203760.948
-30	211976.2031
-29	217794.6822
-28	223804.0972
-27	226202.7186
-26	221626.6306
-25	216874.9351
-24	208143.6186
-23	196466.8168
-22	193341.4571
-21	194051.3614
-20	198004.0192
-19	201594.5826
-18	206652.5261
-17	211150.1922
-16	216704.7612
-15	219126.0769
-14	220764.3931
-13	227397.8204
-12	233564.0653
-11	243025.1696
-10	253963.6401
-9	263137.5259
-8	282934.5066
-7	296622.6989
-6	313540.373
-5	345812.0363
-4	357621.5565
-3	393609.8731
-2	487987.6189
-1	511063.5435
0	1768679.9792
1	511063.5435
2	487987.6189
3	393609.8731
4	357621.5565
5	345812.0363
6	313540.373
7	296622.6989
8	282934.5066
9	263137.5259
10	253963.6401
11	243025.1696
12	233564.0653
13	227397.8204
14	220764.3931
15	219126.0769
16	216704.7612
17	211150.1922
18	206652.5261
19	201594.5826
20	198004.0192
21	194051.3614
22	193341.4571
23	196466.8168
24	208143.6186
25	216874.9351
26	221626.6306
27	226202.7186
28	223804.0972
29	217794.6822
30	211976.2031
31	203760.948
32	200482.7862
33	197557.293
34	192883.6808
35	189872.3575
36	189351.9459
37	185974.5849
38	184355.5216
39	182520.4263
40	181595.815
41	179761.9113
42	180436.5695
43	179950.8873
44	179374.0381
45	180106.5758
46	178899.9389
47	179368.3426
48	180068.9952
49	181602.4909
50	183249.0533
51	187226.3778
52	189274.0357
53	191396.0126
54	193868.2017
55	194836.1605
56	193907.6734
57	193451.9389
58	191364.8001
59	188641.4404
60	187886.3993
61	187297.0343
62	186487.7195
63	186670.005
64	185481.9081
65	184028.9712
66	183411.0754
67	181585.2473
68	180798.9573
69	181604.3468
70	181007.4985
71	181275.6798
72	180190.6106
73	181213.3023
74	178934.9689
75	181049.6675
76	179700.3236
77	181604.005
78	182881.343
79	183503.2453
80	183840.0828
81	185018.3077
82	184481.7395
83	184759.4286
84	185047.7195
85	184400.4303
86	185292.4835
87	184442.1935
88	184215.8969
89	184107.3842
90	182723.9187
91	182025.4471
92	182552.7622
93	182869.8126
94	181205.993
95	181289.7332
96	181700.1257
97	181586.2725
98	182439.449
99	181648.5902
100	180648.2711
101	181531.769
102	180724.5099
103	180939.8513
104	180434.4964
105	182467.5051
106	182478.6492
107	182277.8279
108	181995.2641
109	181233.4851
110	181164.8278
111	181486.3272
112	182338.2674
113	181479.9511
114	182357.6598
115	181449.0981
116	179870.2263
117	181465.2234
118	178761.67
119	180615.073
120	180376.3602
121	180216.3423
122	178429.173
123	179140.7358
124	179060.7228
125	178327.0529
126	179618.5472
127	178379.6549
128	179042.846
129	179699.0299
130	179160.0047
131	180226.4267
132	180720.7414
133	179184.8607
134	178531.0568
135	178009.9959
136	178187.6163
137	178363.9289
138	178609.3382
139	178919.767
140	177292.6305
141	179592.4363
142	178167.8484
143	178855.3635
144	180473.187
145	178529.226
146	178309.4014
147	179340.0108
148	178737.9538
149	178599.5405
150	179202.4401
151	179220.396
152	178857.893
153	180127.2056
154	179540.406
155	179130.7449
156	179031.9013
157	177677.7171
158	179845.8029
159	177737.2269
160	178575.6877
161	179339.194
162	179984.4677
163	180209.277
164	180866.5417
165	179685.4146
166	179789.6659
167	179076.5983
168	177811.9198
169	179310.6782
170	179491.4407
171	178500.0644
172	178949.2524
173	177699.4637
174	176896.7989
175	176976.3588
176	177566.8975
177	177281.4854
178	176720.1666
179	176939.8664
180	176814.5321
181	175255.4294
182	175227.7252
183	175747.344
184	176086.5477
185	176315.0419
186	177191.894
187	176823.2486
188	177118.5637
189	175559.9387
190	175214.1268
191	176382.7162
192	175653.5426
193	175069.2558
194	175626.4816
195	175318.3717
196	175233.134
197	175446.6275
198	174465.8308
199	175027.9311
200	87603.3709
