Position	Value
-200	51.6062
-199	92.0827
-198	90.3814
-197	90.1756
-196	91.3541
-195	85.8188
-194	90.4216
-193	91.2889
-192	81.0345
-191	101.1206
-190	96.8288
-189	84.2519
-188	90.4202
-187	90.6263
-186	97.1898
-185	88.0908
-184	75.0416
-183	85.4303
-182	74.4818
-181	68.7421
-180	91.7524
-179	82.455
-178	76.1629
-177	69.0301
-176	96.2436
-175	79.2197
-174	77.7554
-173	80.7987
-172	74.5057
-171	91.297
-170	75.8694
-169	79.1695
-168	86.1559
-167	79.5214
-166	90.9048
-165	90.1692
-164	101.2515
-163	88.3508
-162	80.0606
-161	92.5085
-160	79.2085
-159	82.9566
-158	90.8895
-157	86.2811
-156	98.9172
-155	97.2491
-154	97.4985
-153	82.4223
-152	80.3285
-151	80.4347
-150	86.4661
-149	71.858
-148	85.8124
-147	88.248
-146	96.9441
-145	84.7606
-144	96.4184
-143	97.2395
-142	90.8594
-141	83.7349
-140	88.9668
-139	85.6373
-138	95.5554
-137	83.1883
-136	101.9883
-135	95.4579
-134	99.2447
-133	108.7749
-132	107.6464
-131	96.21
-130	90.4074
-129	87.996
-128	89.6725
-127	87.533
-126	88.8376
-125	100.5266
-124	87.898
-123	99.2615
-122	106.7956
-121	93.3818
-120	83.5006
-119	103.6556
-118	93.3969
-117	102.0506
-116	96.6379
-115	94.5216
-114	93.5538
-113	86.9071
-112	83.4692
-111	76.2767
-110	90.2657
-109	85.4139
-108	91.3355
-107	93.7659
-106	96.6628
-105	100.9038
-104	94.8117
-103	110.7929
-102	102.7875
-101	102.2805
-100	101.4899
-99	100.3405
-98	93.7467
-97	106.0372
-96	97.8554
-95	94.1371
-94	83.8103
-93	99.6449
-92	95.9135
-91	85.7053
-90	92.4368
-89	97.3876
-88	87.2026
-87	108.7844
-86	99.7245
-85	90.8683
-84	103.7814
-83	89.0586
-82	94.8303
-81	110.593
-80	88.3147
-79	113.9926
-78	105.3845
-77	109.2807
-76	98.3206
-75	104.8177
-74	98.4124
-73	101.4129
-72	91.9337
-71	103.4953
-70	106.3725
-69	101.9856
-68	114.8695
-67	116.1346
-66	126.2529
-65	124.8577
-64	104.0892
-63	111.6555
-62	90.1107
-61	90.4481
-60	85.6063
-59	84.4206
-58	84.6701
-57	88.6913
-56	101.0047
-55	110.5735
-54	111.1947
-53	105.0728
-52	99.2043
-51	104.7843
-50	93.2917
-49	106.5857
-48	105.7103
-47	94.6112
-46	96.9895
-45	113.4611
-44	112.0549
-43	99.2838
-42	104.9074
-41	98.1645
-40	94.1738
-39	96.35
-38	102.1259
-37	107.6348
-36	102.2289
-35	111.7477
-34	122.9007
-33	124.0728
-32	126.8551
-31	106.4646
-30	108.1096
-29	118.6574
-28	131.2327
-27	128.1047
-26	121.2753
-25	122.84
-24	124.9877
-23	132.5983
-22	115.5603
-21	140.4327
-20	145.1388
-19	122.7348
-18	132.3983
-17	125.7545
-16	132.4427
-15	172.2282
-14	165.6675
-13	139.3764
-12	163.7864
-11	193.8938
-10	191.0812
-9	199.4504
-8	199.7166
-7	173.5282
-6	222.3127
-5	289.0282
-4	380.4844
-3	483.839
-2	683.999
-1	1042.2323
0	14795.7707
1	1042.2323
2	683.999
3	483.839
4	380.4844
5	289.0282
6	222.3127
7	173.5282
8	199.7166
9	199.4504
10	191.0812
11	193.8938
12	163.7864
13	139.3764
14	165.6675
15	172.2282
16	132.4427
17	125.7545
18	132.3983
19	122.7348
20	145.1388
21	140.4327
22	115.5603
23	132.5983
24	124.9877
25	122.84
26	121.2753
27	128.1047
28	131.2327
29	118.6574
30	108.1096
31	106.4646
32	126.8551
33	124.0728
34	122.9007
35	111.7477
36	102.2289
37	107.6348
38	102.1259
39	96.35
40	94.1738
41	98.1645
42	104.9074
43	99.2838
44	112.0549
45	113.4611
46	96.9895
47	94.6112
48	105.7103
49	106.5857
50	93.2917
51	104.7843
52	99.2043
53	105.0728
54	111.1947
55	110.5735
56	101.0047
57	88.6913
58	84.6701
59	84.4206
60	85.6063
61	90.4481
62	90.1107
63	111.6555
64	104.0892
65	124.8577
66	126.2529
67	116.1346
68	114.8695
69	101.9856
70	106.3725
71	103.4953
72	91.9337
73	101.4129
74	98.4124
75	104.8177
76	98.3206
77	109.2807
78	105.3845
79	113.9926
80	88.3147
81	110.593
82	94.8303
83	89.0586
84	103.7814
85	90.8683
86	99.7245
87	108.7844
88	87.2026
89	97.3876
90	92.4368
91	85.7053
92	95.9135
93	99.6449
94	83.8103
95	94.1371
96	97.8554
97	106.0372
98	93.7467
99	100.3405
100	101.4899
101	102.2805
102	102.7875
103	110.7929
104	94.8117
105	100.9038
106	96.6628
107	93.7659
108	91.3355
109	85.4139
110	90.2657
111	76.2767
112	83.4692
113	86.9071
114	93.5538
115	94.5216
116	96.6379
117	102.0506
118	93.3969
119	103.6556
120	83.5006
121	93.3818
122	106.7956
123	99.2615
124	87.898
125	100.5266
126	88.8376
127	87.533
128	89.6725
129	87.996
130	90.4074
131	96.21
132	107.6464
133	108.7749
134	99.2447
135	95.4579
136	101.9883
137	83.1883
138	95.5554
139	85.6373
140	88.9668
141	83.7349
142	90.8594
143	97.2395
144	96.4184
145	84.7606
146	96.9441
147	88.248
148	85.8124
149	71.858
150	86.4661
151	80.4347
152	80.3285
153	82.4223
154	97.4985
155	97.2491
156	98.9172
157	86.2811
158	90.8895
159	82.9566
160	79.2085
161	92.5085
162	80.0606
163	88.3508
164	101.2515
165	90.1692
166	90.9048
167	79.5214
168	86.1559
169	79.1695
170	75.8694
171	91.297
172	74.5057
173	80.7987
174	77.7554
175	79.2197
176	96.2436
177	69.0301
178	76.1629
179	82.455
180	91.7524
181	68.7421
182	74.4818
183	85.4303
184	75.0416
185	88.0908
186	97.1898
187	90.6263
188	90.4202
189	84.2519
190	96.8288
191	101.1206
192	81.0345
193	91.2889
194	90.4216
195	85.8188
196	91.3541
197	90.1756
198	90.3814
199	92.0827
200	51.6062
