Position	Value
-200	3.4743
-199	12.9873
-198	18.3375
-197	8.612
-196	7.1295
-195	16.8863
-194	15.1453
-193	15.3146
-192	9.0902
-191	8.7786
-190	9.2043
-189	10.2903
-188	3.6388
-187	9.1479
-186	6.9489
-185	7.1006
-184	5.5038
-183	13.3533
-182	9.3899
-181	9.0427
-180	14.1626
-179	9.2933
-178	9.9707
-177	5.8025
-176	13.2757
-175	12.6721
-174	11.6335
-173	12.1564
-172	18.9966
-171	16.7875
-170	16.6102
-169	10.4409
-168	11.3089
-167	15.5491
-166	15.6283
-165	12.603
-164	16.2935
-163	13.0256
-162	11.8112
-161	3.6595
-160	9.1028
-159	14.8765
-158	11.4791
-157	12.5497
-156	11.0209
-155	8.8738
-154	12.1155
-153	13.3552
-152	18.171
-151	13.2383
-150	17.9261
-149	15.4351
-148	9.2643
-147	13.9123
-146	11.8115
-145	12.1068
-144	6.3751
-143	5.0854
-142	9.1133
-141	11.6355
-140	12.7159
-139	9.0923
-138	12.7123
-137	19.7442
-136	17.0755
-135	15.9236
-134	16.3865
-133	14.126
-132	12.2235
-131	10.4717
-130	16.1433
-129	14.2095
-128	14.6532
-127	18.9448
-126	13.8868
-125	11.759
-124	13.1639
-123	13.783
-122	22.2634
-121	14.4386
-120	10.0197
-119	19.1846
-118	16.578
-117	9.181
-116	14.1252
-115	8.9886
-114	13.818
-113	13.5297
-112	7.5867
-111	14.0526
-110	9.3843
-109	6.2646
-108	8.759
-107	15.7867
-106	8.2206
-105	11.8337
-104	9.898
-103	10.4628
-102	14.7888
-101	12.5875
-100	8.8372
-99	11.2857
-98	9.199
-97	14.7974
-96	13.9598
-95	10.0903
-94	12.363
-93	12.9993
-92	10.1533
-91	13.2311
-90	12.2826
-89	13.5911
-88	13.4125
-87	12.3248
-86	9.4039
-85	11.2244
-84	14.5516
-83	6.4511
-82	5.4975
-81	13.9845
-80	12.573
-79	21.0574
-78	10.2054
-77	16.0353
-76	18.2631
-75	12.0527
-74	11.9579
-73	15.6719
-72	11.2594
-71	11.8369
-70	7.0424
-69	13.9461
-68	16.0131
-67	10.1369
-66	12.8327
-65	15.315
-64	11.6285
-63	12.9244
-62	14.5038
-61	13.441
-60	11.6565
-59	12.8168
-58	17.2023
-57	16.1936
-56	15.4271
-55	14.974
-54	11.186
-53	7.1094
-52	9.2823
-51	14.409
-50	12.2371
-49	9.9676
-48	10.52
-47	17.024
-46	22.6891
-45	9.1433
-44	16.1953
-43	15.6842
-42	16.2631
-41	13.7084
-40	6.3679
-39	22.1267
-38	16.6727
-37	17.6138
-36	19.2845
-35	20.0719
-34	20.6098
-33	8.9172
-32	12.0252
-31	16.7897
-30	18.7291
-29	13.8699
-28	21.0531
-27	15.8311
-26	16.6406
-25	20.5191
-24	18.7677
-23	20.8618
-22	14.1277
-21	14.4375
-20	7.697
-19	17.3478
-18	14.5783
-17	16.3114
-16	10.5996
-15	18.2012
-14	29.8565
-13	21.367
-12	34.0235
-11	21.6167
-10	16.8902
-9	23.2592
-8	28.0488
-7	22.986
-6	22.6404
-5	37.0414
-4	38.4705
-3	48.012
-2	64.1248
-1	95.8528
0	2150.8593
1	95.8528
2	64.1248
3	48.012
4	38.4705
5	37.0414
6	22.6404
7	22.986
8	28.0488
9	23.2592
10	16.8902
11	21.6167
12	34.0235
13	21.367
14	29.8565
15	18.2012
16	10.5996
17	16.3114
18	14.5783
19	17.3478
20	7.697
21	14.4375
22	14.1277
23	20.8618
24	18.7677
25	20.5191
26	16.6406
27	15.8311
28	21.0531
29	13.8699
30	18.7291
31	16.7897
32	12.0252
33	8.9172
34	20.6098
35	20.0719
36	19.2845
37	17.6138
38	16.6727
39	22.1267
40	6.3679
41	13.7084
42	16.2631
43	15.6842
44	16.1953
45	9.1433
46	22.6891
47	17.024
48	10.52
49	9.9676
50	12.2371
51	14.409
52	9.2823
53	7.1094
54	11.186
55	14.974
56	15.4271
57	16.1936
58	17.2023
59	12.8168
60	11.6565
61	13.441
62	14.5038
63	12.9244
64	11.6285
65	15.315
66	12.8327
67	10.1369
68	16.0131
69	13.9461
70	7.0424
71	11.8369
72	11.2594
73	15.6719
74	11.9579
75	12.0527
76	18.2631
77	16.0353
78	10.2054
79	21.0574
80	12.573
81	13.9845
82	5.4975
83	6.4511
84	14.5516
85	11.2244
86	9.4039
87	12.3248
88	13.4125
89	13.5911
90	12.2826
91	13.2311
92	10.1533
93	12.9993
94	12.363
95	10.0903
96	13.9598
97	14.7974
98	9.199
99	11.2857
100	8.8372
101	12.5875
102	14.7888
103	10.4628
104	9.898
105	11.8337
106	8.2206
107	15.7867
108	8.759
109	6.2646
110	9.3843
111	14.0526
112	7.5867
113	13.5297
114	13.818
115	8.9886
116	14.1252
117	9.181
118	16.578
119	19.1846
120	10.0197
121	14.4386
122	22.2634
123	13.783
124	13.1639
125	11.759
126	13.8868
127	18.9448
128	14.6532
129	14.2095
130	16.1433
131	10.4717
132	12.2235
133	14.126
134	16.3865
135	15.9236
136	17.0755
137	19.7442
138	12.7123
139	9.0923
140	12.7159
141	11.6355
142	9.1133
143	5.0854
144	6.3751
145	12.1068
146	11.8115
147	13.9123
148	9.2643
149	15.4351
150	17.9261
151	13.2383
152	18.171
153	13.3552
154	12.1155
155	8.8738
156	11.0209
157	12.5497
158	11.4791
159	14.8765
160	9.1028
161	3.6595
162	11.8112
163	13.0256
164	16.2935
165	12.603
166	15.6283
167	15.5491
168	11.3089
169	10.4409
170	16.6102
171	16.7875
172	18.9966
173	12.1564
174	11.6335
175	12.6721
176	13.2757
177	5.8025
178	9.9707
179	9.2933
180	14.1626
181	9.0427
182	9.3899
183	13.3533
184	5.5038
185	7.1006
186	6.9489
187	9.1479
188	3.6388
189	10.2903
190	9.2043
191	8.7786
192	9.0902
193	15.3146
194	15.1453
195	16.8863
196	7.1295
197	8.612
198	18.3375
199	12.9873
200	3.4743
