Position	Value
-200	1860.3365
-199	3980.3239
-198	3900.3737
-197	4001.4178
-196	3800.3256
-195	4041.3356
-194	3822.0475
-193	3840.9634
-192	3945.0069
-191	3945.2695
-190	3879.4368
-189	3900.5333
-188	3904.0422
-187	3861.4332
-186	3796.8631
-185	3732.986
-184	3802.149
-183	3751.3725
-182	3626.4716
-181	3786.9324
-180	3664.1101
-179	3836.0226
-178	3815.4895
-177	4001.1996
-176	3981.6571
-175	3956.5956
-174	4107.9537
-173	3970.9811
-172	3928.8666
-171	4059.15
-170	4105.3233
-169	4023.6927
-168	4068.8058
-167	3989.4548
-166	4001.6674
-165	4029.6149
-164	4042.0983
-163	4061.2363
-162	3995.0001
-161	3889.0155
-160	4065.3672
-159	3819.4581
-158	3965.9916
-157	3878.412
-156	4074.1458
-155	3981.1005
-154	3887.1391
-153	3947.8941
-152	3760.8693
-151	3929.9555
-150	4072.0193
-149	4087.6834
-148	4102.9779
-147	3922.124
-146	3932.2639
-145	3951.1627
-144	4084.5393
-143	4161.6992
-142	3945.8853
-141	3991.1082
-140	3851.4874
-139	3996.2384
-138	4083.6979
-137	4084.2157
-136	3987.9145
-135	3883.0386
-134	3816.3936
-133	4121.4322
-132	4276.4445
-131	4137.5745
-130	4163.5149
-129	3994.6563
-128	4243.697
-127	3989.817
-126	3991.4937
-125	3922.1083
-124	4042.0106
-123	4217.8291
-122	4249.1986
-121	4470.9015
-120	4265.2526
-119	4408.0177
-118	4267.0751
-117	4361.8274
-116	4368.5723
-115	4450.8435
-114	4204.5441
-113	4281.0734
-112	4322.9103
-111	4367.9703
-110	4348.5186
-109	4316.2662
-108	4187.5977
-107	4078.9703
-106	3975.2082
-105	4084.2488
-104	4007.168
-103	4030.1192
-102	4224.58
-101	4107.2357
-100	4279.3734
-99	4355.9029
-98	4319.2833
-97	4281.1467
-96	4243.9161
-95	4216.5856
-94	4333.019
-93	4433.223
-92	4392.6781
-91	4392.0462
-90	4594.7661
-89	4596.7585
-88	4739.1713
-87	4648.5241
-86	4661.1872
-85	4674.6261
-84	4509.519
-83	4515.2714
-82	4665.3106
-81	4716.6348
-80	4744.1492
-79	4525.7147
-78	4657.2535
-77	4751.5683
-76	4670.4375
-75	4800.2612
-74	4512.5994
-73	4570.5361
-72	4468.1826
-71	4599.4385
-70	4585.3839
-69	4810.9362
-68	4567.8006
-67	4833.7516
-66	4651.7096
-65	4796.9857
-64	4693.5454
-63	4777.3404
-62	4657.4674
-61	4585.7027
-60	4617.8691
-59	4628.5013
-58	4805.3053
-57	4666.2703
-56	4918.8616
-55	4719.5882
-54	4683.5994
-53	4584.1349
-52	4458.8415
-51	4529.3317
-50	4137.1791
-49	4231.2907
-48	4295.5548
-47	4312.2135
-46	4413.8035
-45	4533.5187
-44	4678.0517
-43	4523.9539
-42	4472.5378
-41	4495.2519
-40	4395.7531
-39	4426.1952
-38	4414.9256
-37	4482.7136
-36	4596.3893
-35	4757.8704
-34	4920.5324
-33	5107.4017
-32	5058.1752
-31	4895.8593
-30	5150.5078
-29	5242.257
-28	5167.9044
-27	5166.9029
-26	4835.1291
-25	5033.8653
-24	5071.8541
-23	5268.3112
-22	5586.293
-21	5306.1185
-20	5283.0929
-19	5596.2976
-18	5651.4849
-17	5968.8754
-16	6053.1642
-15	6406.709
-14	6550.844
-13	7247.3539
-12	7602.1901
-11	8335.1495
-10	8666.4708
-9	9059.0389
-8	9565.2239
-7	10408.9595
-6	11517.1436
-5	12438.0799
-4	12318.7561
-3	13905.2065
-2	18287.1827
-1	19280.776
0	105593.694
1	19280.776
2	18287.1827
3	13905.2065
4	12318.7561
5	12438.0799
6	11517.1436
7	10408.9595
8	9565.2239
9	9059.0389
10	8666.4708
11	8335.1495
12	7602.1901
13	7247.3539
14	6550.844
15	6406.709
16	6053.1642
17	5968.8754
18	5651.4849
19	5596.2976
20	5283.0929
21	5306.1185
22	5586.293
23	5268.3112
24	5071.8541
25	5033.8653
26	4835.1291
27	5166.9029
28	5167.9044
29	5242.257
30	5150.5078
31	4895.8593
32	5058.1752
33	5107.4017
34	4920.5324
35	4757.8704
36	4596.3893
37	4482.7136
38	4414.9256
39	4426.1952
40	4395.7531
41	4495.2519
42	4472.5378
43	4523.9539
44	4678.0517
45	4533.5187
46	4413.8035
47	4312.2135
48	4295.5548
49	4231.2907
50	4137.1791
51	4529.3317
52	4458.8415
53	4584.1349
54	4683.5994
55	4719.5882
56	4918.8616
57	4666.2703
58	4805.3053
59	4628.5013
60	4617.8691
61	4585.7027
62	4657.4674
63	4777.3404
64	4693.5454
65	4796.9857
66	4651.7096
67	4833.7516
68	4567.8006
69	4810.9362
70	4585.3839
71	4599.4385
72	4468.1826
73	4570.5361
74	4512.5994
75	4800.2612
76	4670.4375
77	4751.5683
78	4657.2535
79	4525.7147
80	4744.1492
81	4716.6348
82	4665.3106
83	4515.2714
84	4509.519
85	4674.6261
86	4661.1872
87	4648.5241
88	4739.1713
89	4596.7585
90	4594.7661
91	4392.0462
92	4392.6781
93	4433.223
94	4333.019
95	4216.5856
96	4243.9161
97	4281.1467
98	4319.2833
99	4355.9029
100	4279.3734
101	4107.2357
102	4224.58
103	4030.1192
104	4007.168
105	4084.2488
106	3975.2082
107	4078.9703
108	4187.5977
109	4316.2662
110	4348.5186
111	4367.9703
112	4322.9103
113	4281.0734
114	4204.5441
115	4450.8435
116	4368.5723
117	4361.8274
118	4267.0751
119	4408.0177
120	4265.2526
121	4470.9015
122	4249.1986
123	4217.8291
124	4042.0106
125	3922.1083
126	3991.4937
127	3989.817
128	4243.697
129	3994.6563
130	4163.5149
131	4137.5745
132	4276.4445
133	4121.4322
134	3816.3936
135	3883.0386
136	3987.9145
137	4084.2157
138	4083.6979
139	3996.2384
140	3851.4874
141	3991.1082
142	3945.8853
143	4161.6992
144	4084.5393
145	3951.1627
146	3932.2639
147	3922.124
148	4102.9779
149	4087.6834
150	4072.0193
151	3929.9555
152	3760.8693
153	3947.8941
154	3887.1391
155	3981.1005
156	4074.1458
157	3878.412
158	3965.9916
159	3819.4581
160	4065.3672
161	3889.0155
162	3995.0001
163	4061.2363
164	4042.0983
165	4029.6149
166	4001.6674
167	3989.4548
168	4068.8058
169	4023.6927
170	4105.3233
171	4059.15
172	3928.8666
173	3970.9811
174	4107.9537
175	3956.5956
176	3981.6571
177	4001.1996
178	3815.4895
179	3836.0226
180	3664.1101
181	3786.9324
182	3626.4716
183	3751.3725
184	3802.149
185	3732.986
186	3796.8631
187	3861.4332
188	3904.0422
189	3900.5333
190	3879.4368
191	3945.2695
192	3945.0069
193	3840.9634
194	3822.0475
195	4041.3356
196	3800.3256
197	4001.4178
198	3900.3737
199	3980.3239
200	1860.3365
