Position	Value
-200	84498.2694
-199	168545.6447
-198	168635.8617
-197	168591.5535
-196	167987.4786
-195	168327.7431
-194	168152.8821
-193	167677.7341
-192	169207.3688
-191	169114.6906
-190	169135.0309
-189	169023.8994
-188	168716.9781
-187	169423.3659
-186	169889.28
-185	169261.2504
-184	169369.7446
-183	168905.6546
-182	168595.1225
-181	169988.0941
-180	169490.9572
-179	169389.6145
-178	169742.7145
-177	171470.2563
-176	171420.5489
-175	171354.4276
-174	171745.5338
-173	171445.5029
-172	171866.435
-171	171048.9212
-170	170556.4335
-169	170994.8807
-168	171076.9938
-167	171737.7349
-166	172590.3147
-165	172326.4771
-164	172157.399
-163	171306.1469
-162	171707.2281
-161	171662.2231
-160	170664.4036
-159	171276.7313
-158	172541.4351
-157	170956.8109
-156	172234.367
-155	171430.0113
-154	171591.965
-153	172461.6155
-152	172181.7011
-151	171834.6059
-150	171438.9883
-149	171917.8163
-148	171907.7344
-147	172173.7458
-146	173270.7947
-145	172866.0554
-144	173929.8646
-143	172284.3442
-142	171368.5223
-141	172814.902
-140	171649.7276
-139	173346.9361
-138	172153.5471
-137	172808.4313
-136	171894.955
-135	172380.4301
-134	172486.754
-133	172393.9777
-132	173725.3138
-131	173144.3014
-130	172149.4193
-129	172139.1534
-128	171432.6451
-127	172582.8918
-126	172142.5409
-125	172536.2352
-124	171482.4337
-123	172157.5484
-122	172333.0235
-121	172603.3609
-120	173208.8728
-119	172425.1271
-118	173039.3762
-117	174915.9124
-116	173813.8022
-115	175262.9287
-114	175633.2382
-113	175708.5692
-112	174016.7501
-111	174330.1457
-110	174310.1833
-109	173753.4344
-108	175190.1429
-107	173757.8082
-106	173907.9913
-105	174049.6849
-104	172364.2794
-103	173197.8896
-102	173222.0866
-101	173342.9417
-100	173265.3318
-99	174026.6418
-98	174495.0115
-97	175112.6292
-96	175019.7339
-95	174209.4061
-94	174337.2187
-93	174336.3318
-92	174887.872
-91	175158.5082
-90	175712.2723
-89	176834.3881
-88	176968.2832
-87	177445.4455
-86	177426.9399
-85	178415.071
-84	178792.188
-83	178826.2929
-82	179022.25
-81	178113.4383
-80	177168.1422
-79	176388.9416
-78	177293.0288
-77	175641.7726
-76	173676.0144
-75	174859.1529
-74	173249.8417
-73	173953.407
-72	174369.0468
-71	175131.077
-70	174764.2963
-69	174689.0193
-68	173937.7731
-67	174188.4312
-66	175434.7162
-65	176230.4071
-64	177538.7631
-63	179261.314
-62	178177.4255
-61	179635.0454
-60	180387.7354
-59	181741.4129
-58	183107.1678
-57	184843.0866
-56	185718.7174
-55	185817.6481
-54	184925.6043
-53	183345.9561
-52	181505.9543
-51	178842.6876
-50	176396.8009
-49	174018.2114
-48	173052.2257
-47	172802.0927
-46	172405.0726
-45	173619.5657
-44	172845.0172
-43	172109.7122
-42	173245.7784
-41	173435.9419
-40	174310.7584
-39	174450.3349
-38	175845.7618
-37	177294.2504
-36	179801.4928
-35	179814.0496
-34	183403.0486
-33	186135.5355
-32	189269.0983
-31	192552.1677
-30	198788.119
-29	205576.738
-28	209280.7222
-27	211619.1806
-26	208346.4329
-25	205198.7866
-24	199967.7969
-23	189772.4481
-22	186968.7681
-21	189199.0508
-20	192855.4058
-19	195972.5442
-18	200221.1666
-17	205721.9642
-16	210891.8615
-15	215783.5926
-14	215687.1682
-13	221761.1811
-12	226734.3334
-11	234422.7641
-10	245071.3699
-9	255161.5093
-8	273587.829
-7	286766.824
-6	303607.5245
-5	332628.1938
-4	342949.9266
-3	375414.1354
-2	469157.5272
-1	479463.5195
0	1685124.9734
1	479463.5195
2	469157.5272
3	375414.1354
4	342949.9266
5	332628.1938
6	303607.5245
7	286766.824
8	273587.829
9	255161.5093
10	245071.3699
11	234422.7641
12	226734.3334
13	221761.1811
14	215687.1682
15	215783.5926
16	210891.8615
17	205721.9642
18	200221.1666
19	195972.5442
20	192855.4058
21	189199.0508
22	186968.7681
23	189772.4481
24	199967.7969
25	205198.7866
26	208346.4329
27	211619.1806
28	209280.7222
29	205576.738
30	198788.119
31	192552.1677
32	189269.0983
33	186135.5355
34	183403.0486
35	179814.0496
36	179801.4928
37	177294.2504
38	175845.7618
39	174450.3349
40	174310.7584
41	173435.9419
42	173245.7784
43	172109.7122
44	172845.0172
45	173619.5657
46	172405.0726
47	172802.0927
48	173052.2257
49	174018.2114
50	176396.8009
51	178842.6876
52	181505.9543
53	183345.9561
54	184925.6043
55	185817.6481
56	185718.7174
57	184843.0866
58	183107.1678
59	181741.4129
60	180387.7354
61	179635.0454
62	178177.4255
63	179261.314
64	177538.7631
65	176230.4071
66	175434.7162
67	174188.4312
68	173937.7731
69	174689.0193
70	174764.2963
71	175131.077
72	174369.0468
73	173953.407
74	173249.8417
75	174859.1529
76	173676.0144
77	175641.7726
78	177293.0288
79	176388.9416
80	177168.1422
81	178113.4383
82	179022.25
83	178826.2929
84	178792.188
85	178415.071
86	177426.9399
87	177445.4455
88	176968.2832
89	176834.3881
90	175712.2723
91	175158.5082
92	174887.872
93	174336.3318
94	174337.2187
95	174209.4061
96	175019.7339
97	175112.6292
98	174495.0115
99	174026.6418
100	173265.3318
101	173342.9417
102	173222.0866
103	173197.8896
104	172364.2794
105	174049.6849
106	173907.9913
107	173757.8082
108	175190.1429
109	173753.4344
110	174310.1833
111	174330.1457
112	174016.7501
113	175708.5692
114	175633.2382
115	175262.9287
116	173813.8022
117	174915.9124
118	173039.3762
119	172425.1271
120	173208.8728
121	172603.3609
122	172333.0235
123	172157.5484
124	171482.4337
125	172536.2352
126	172142.5409
127	172582.8918
128	171432.6451
129	172139.1534
130	172149.4193
131	173144.3014
132	173725.3138
133	172393.9777
134	172486.754
135	172380.4301
136	171894.955
137	172808.4313
138	172153.5471
139	173346.9361
140	171649.7276
141	172814.902
142	171368.5223
143	172284.3442
144	173929.8646
145	172866.0554
146	173270.7947
147	172173.7458
148	171907.7344
149	171917.8163
150	171438.9883
151	171834.6059
152	172181.7011
153	172461.6155
154	171591.965
155	171430.0113
156	172234.367
157	170956.8109
158	172541.4351
159	171276.7313
160	170664.4036
161	171662.2231
162	171707.2281
163	171306.1469
164	172157.399
165	172326.4771
166	172590.3147
167	171737.7349
168	171076.9938
169	170994.8807
170	170556.4335
171	171048.9212
172	171866.435
173	171445.5029
174	171745.5338
175	171354.4276
176	171420.5489
177	171470.2563
178	169742.7145
179	169389.6145
180	169490.9572
181	169988.0941
182	168595.1225
183	168905.6546
184	169369.7446
185	169261.2504
186	169889.28
187	169423.3659
188	168716.9781
189	169023.8994
190	169135.0309
191	169114.6906
192	169207.3688
193	167677.7341
194	168152.8821
195	168327.7431
196	167987.4786
197	168591.5535
198	168635.8617
199	168545.6447
200	84498.2694
