Position	Value
-200	389860
-199	391767
-198	391847
-197	395298
-196	395050
-195	395190
-194	396538
-193	396794
-192	398943
-191	400606
-190	399305
-189	400881
-188	401345
-187	401276
-186	403524
-185	401649
-184	401946
-183	401369
-182	400892
-181	400812
-180	399482
-179	400044
-178	398917
-177	399316
-176	396904
-175	396188
-174	398012
-173	397540
-172	396744
-171	402394
-170	397558
-169	399287
-168	400636
-167	399810
-166	401581
-165	405586
-164	406159
-163	408089
-162	408919
-161	406379
-160	409453
-159	413020
-158	412117
-157	412965
-156	417674
-155	414304
-154	414329
-153	413801
-152	412804
-151	412428
-150	412868
-149	409459
-148	405054
-147	406937
-146	403211
-145	405784
-144	405914
-143	403925
-142	403670
-141	406804
-140	405868
-139	407346
-138	408616
-137	408278
-136	410734
-135	414040
-134	414985
-133	412669
-132	419101
-131	422800
-130	423349
-129	426858
-128	426228
-127	427930
-126	430741
-125	430993
-124	431373
-123	431561
-122	431149
-121	430375
-120	429614
-119	423430
-118	420684
-117	419886
-116	413836
-115	414431
-114	411861
-113	411564
-112	410648
-111	412977
-110	413202
-109	414013
-108	416205
-107	417965
-106	415421
-105	421602
-104	419041
-103	422989
-102	430625
-101	431672
-100	435050
-99	440354
-98	441499
-97	444266
-96	448412
-95	449605
-94	451938
-93	453967
-92	449557
-91	448378
-90	446575
-89	440480
-88	438408
-87	434302
-86	426950
-85	424810
-84	420446
-83	416846
-82	416330
-81	419718
-80	418312
-79	420726
-78	421972
-77	423085
-76	423564
-75	428077
-74	427302
-73	431699
-72	437121
-71	443314
-70	447951
-69	453280
-68	457132
-67	464346
-66	476003
-65	481088
-64	483477
-63	491053
-62	491876
-61	490647
-60	486473
-59	480627
-58	472972
-57	464384
-56	450712
-55	442373
-54	435287
-53	432707
-52	431072
-51	431832
-50	430186
-49	425685
-48	429239
-47	428350
-46	429949
-45	434737
-44	434735
-43	437585
-42	446021
-41	449017
-40	454383
-39	462749
-38	467460
-37	479228
-36	492705
-35	507402
-34	525892
-33	537856
-32	548344
-31	558092
-30	566194
-29	546268
-28	520306
-27	489889
-26	464281
-25	453032
-24	459511
-23	462204
-22	471243
-21	485814
-20	491572
-19	497836
-18	506384
-17	512145
-16	518669
-15	533087
-14	545031
-13	573527
-12	605795
-11	640119
-10	668007
-9	700866
-8	743202
-7	807977
-6	881532
-5	997754
-4	1.10941e+06
-3	1.23385e+06
-2	1.39154e+06
-1	1.59914e+06
0	6.32084e+06
1	1.59914e+06
2	1.39154e+06
3	1.23385e+06
4	1.10941e+06
5	997754
6	881532
7	807977
8	743202
9	700866
10	668007
11	640119
12	605795
13	573527
14	545031
15	533087
16	518669
17	512145
18	506384
19	497836
20	491572
21	485814
22	471243
23	462204
24	459511
25	453032
26	464281
27	489889
28	520306
29	546268
30	566194
31	558092
32	548344
33	537856
34	525892
35	507402
36	492705
37	479228
38	467460
39	462749
40	454383
41	449017
42	446021
43	437585
44	434735
45	434737
46	429949
47	428350
48	429239
49	425685
50	430186
51	431832
52	431072
53	432707
54	435287
55	442373
56	450712
57	464384
58	472972
59	480627
60	486473
61	490647
62	491876
63	491053
64	483477
65	481088
66	476003
67	464346
68	457132
69	453280
70	447951
71	443314
72	437121
73	431699
74	427302
75	428077
76	423564
77	423085
78	421972
79	420726
80	418312
81	419718
82	416330
83	416846
84	420446
85	424810
86	426950
87	434302
88	438408
89	440480
90	446575
91	448378
92	449557
93	453967
94	451938
95	449605
96	448412
97	444266
98	441499
99	440354
100	435050
101	431672
102	430625
103	422989
104	419041
105	421602
106	415421
107	417965
108	416205
109	414013
110	413202
111	412977
112	410648
113	411564
114	411861
115	414431
116	413836
117	419886
118	420684
119	423430
120	429614
121	430375
122	431149
123	431561
124	431373
125	430993
126	430741
127	427930
128	426228
129	426858
130	423349
131	422800
132	419101
133	412669
134	414985
135	414040
136	410734
137	408278
138	408616
139	407346
140	405868
141	406804
142	403670
143	403925
144	405914
145	405784
146	403211
147	406937
148	405054
149	409459
150	412868
151	412428
152	412804
153	413801
154	414329
155	414304
156	417674
157	412965
158	412117
159	413020
160	409453
161	406379
162	408919
163	408089
164	406159
165	405586
166	401581
167	399810
168	400636
169	399287
170	397558
171	402394
172	396744
173	397540
174	398012
175	396188
176	396904
177	399316
178	398917
179	400044
180	399482
181	400812
182	400892
183	401369
184	401946
185	401649
186	403524
187	401276
188	401345
189	400881
190	399305
191	400606
192	398943
193	396794
194	396538
195	395190
196	395050
197	395298
198	391847
199	391767
200	389860
