Position	Value
-200	15170.1
-199	15381.2
-198	15628.1
-197	15526.7
-196	15346.4
-195	15806.8
-194	16027.9
-193	15578.8
-192	15967.5
-191	15993.3
-190	15973.1
-189	16071.7
-188	15984.8
-187	16166.1
-186	15971.6
-185	15698.6
-184	16223.4
-183	16216.7
-182	15816.3
-181	15689.2
-180	15450.4
-179	15326.8
-178	15660
-177	15175.4
-176	15303.5
-175	15065.1
-174	15266.4
-173	15797.5
-172	15574.3
-171	15416.7
-170	15918.4
-169	15677.7
-168	15786.9
-167	16289.6
-166	16179.7
-165	16128.9
-164	16638.7
-163	16633.7
-162	16685.1
-161	16547.2
-160	16610.9
-159	17015.7
-158	17128.4
-157	16882.2
-156	17136.4
-155	17218.2
-154	17154.3
-153	16979
-152	17015.5
-151	17162.9
-150	16508.6
-149	16699
-148	15588.5
-147	15557.9
-146	15794.5
-145	15875.8
-144	15661
-143	15782.5
-142	15510.5
-141	15859.4
-140	15765.6
-139	16182.3
-138	16037.5
-137	16082.5
-136	16186.4
-135	16366.3
-134	16526.1
-133	16000
-132	16827.2
-131	16856.1
-130	17287.3
-129	17289.3
-128	17860.6
-127	17606.3
-126	17852.6
-125	18006.6
-124	17954.7
-123	18248.7
-122	17909.8
-121	17662.8
-120	18074.4
-119	16956.7
-118	17202.3
-117	16899.6
-116	16099.9
-115	16080.5
-114	16350.8
-113	15876.7
-112	15759.3
-111	15789.8
-110	16122.4
-109	15753.4
-108	16403.1
-107	16061.8
-106	16392.6
-105	16541.9
-104	16379
-103	16841
-102	17646.7
-101	17755.7
-100	17499.2
-99	17980
-98	18563.3
-97	18616.7
-96	19118.8
-95	19311.7
-94	19454.5
-93	19859
-92	19632.8
-91	19085.1
-90	18698.2
-89	18850.4
-88	18027.5
-87	17617.1
-86	17102.7
-85	16694.8
-84	16545.3
-83	16215.7
-82	15841.6
-81	15977.7
-80	16064.1
-79	16193.4
-78	15836.7
-77	16337.9
-76	16379.9
-75	16725.7
-74	16576.2
-73	16992.3
-72	17765.1
-71	17754
-70	18605.2
-69	18909.6
-68	18976.1
-67	19697.6
-66	20368.7
-65	20417.8
-64	21048.4
-63	21642.2
-62	21781
-61	21227.6
-60	21065
-59	20955.5
-58	20161.6
-57	19465.5
-56	18315.7
-55	17668.5
-54	16719.4
-53	16257.5
-52	15877.2
-51	15959.7
-50	15885.8
-49	15707.7
-48	15851.4
-47	15688.9
-46	15526.4
-45	15835.7
-44	15720.9
-43	16247.4
-42	17098.2
-41	17274.1
-40	17490.5
-39	18895.3
-38	18737.9
-37	20119.7
-36	20861.8
-35	21571.9
-34	22806.3
-33	24279.9
-32	24151
-31	25454.2
-30	26800.8
-29	25846.8
-28	23200.9
-27	20735.8
-26	18544.5
-25	17747.6
-24	17750.2
-23	15880.2
-22	15845.2
-21	15962
-20	16092.2
-19	16039.3
-18	16392.2
-17	15985.8
-16	16617.4
-15	16790.8
-14	17292.9
-13	18948.8
-12	20147.9
-11	22129.5
-10	23315.7
-9	24794.1
-8	26787.8
-7	30457.3
-6	33825.6
-5	36820.1
-4	40564.8
-3	46682.2
-2	45703.5
-1	46344.1
0	496522
1	46344.1
2	45703.5
3	46682.2
4	40564.8
5	36820.1
6	33825.6
7	30457.3
8	26787.8
9	24794.1
10	23315.7
11	22129.5
12	20147.9
13	18948.8
14	17292.9
15	16790.8
16	16617.4
17	15985.8
18	16392.2
19	16039.3
20	16092.2
21	15962
22	15845.2
23	15880.2
24	17750.2
25	17747.6
26	18544.5
27	20735.8
28	23200.9
29	25846.8
30	26800.8
31	25454.2
32	24151
33	24279.9
34	22806.3
35	21571.9
36	20861.8
37	20119.7
38	18737.9
39	18895.3
40	17490.5
41	17274.1
42	17098.2
43	16247.4
44	15720.9
45	15835.7
46	15526.4
47	15688.9
48	15851.4
49	15707.7
50	15885.8
51	15959.7
52	15877.2
53	16257.5
54	16719.4
55	17668.5
56	18315.7
57	19465.5
58	20161.6
59	20955.5
60	21065
61	21227.6
62	21781
63	21642.2
64	21048.4
65	20417.8
66	20368.7
67	19697.6
68	18976.1
69	18909.6
70	18605.2
71	17754
72	17765.1
73	16992.3
74	16576.2
75	16725.7
76	16379.9
77	16337.9
78	15836.7
79	16193.4
80	16064.1
81	15977.7
82	15841.6
83	16215.7
84	16545.3
85	16694.8
86	17102.7
87	17617.1
88	18027.5
89	18850.4
90	18698.2
91	19085.1
92	19632.8
93	19859
94	19454.5
95	19311.7
96	19118.8
97	18616.7
98	18563.3
99	17980
100	17499.2
101	17755.7
102	17646.7
103	16841
104	16379
105	16541.9
106	16392.6
107	16061.8
108	16403.1
109	15753.4
110	16122.4
111	15789.8
112	15759.3
113	15876.7
114	16350.8
115	16080.5
116	16099.9
117	16899.6
118	17202.3
119	16956.7
120	18074.4
121	17662.8
122	17909.8
123	18248.7
124	17954.7
125	18006.6
126	17852.6
127	17606.3
128	17860.6
129	17289.3
130	17287.3
131	16856.1
132	16827.2
133	16000
134	16526.1
135	16366.3
136	16186.4
137	16082.5
138	16037.5
139	16182.3
140	15765.6
141	15859.4
142	15510.5
143	15782.5
144	15661
145	15875.8
146	15794.5
147	15557.9
148	15588.5
149	16699
150	16508.6
151	17162.9
152	17015.5
153	16979
154	17154.3
155	17218.2
156	17136.4
157	16882.2
158	17128.4
159	17015.7
160	16610.9
161	16547.2
162	16685.1
163	16633.7
164	16638.7
165	16128.9
166	16179.7
167	16289.6
168	15786.9
169	15677.7
170	15918.4
171	15416.7
172	15574.3
173	15797.5
174	15266.4
175	15065.1
176	15303.5
177	15175.4
178	15660
179	15326.8
180	15450.4
181	15689.2
182	15816.3
183	16216.7
184	16223.4
185	15698.6
186	15971.6
187	16166.1
188	15984.8
189	16071.7
190	15973.1
191	15993.3
192	15967.5
193	15578.8
194	16027.9
195	15806.8
196	15346.4
197	15526.7
198	15628.1
199	15381.2
200	15170.1
