Position	Value
-200	4918.7355
-199	10117.526
-198	10134.0327
-197	10214.4675
-196	10232.7806
-195	10596.65
-194	10086.9034
-193	10042.3507
-192	10187.1562
-191	10169.8938
-190	10083.1295
-189	10423.2166
-188	10451.906
-187	10686.3604
-186	10555.9588
-185	10487.1195
-184	10395.0209
-183	10268.7485
-182	10417.6048
-181	10578.5048
-180	10389.1361
-179	10498.0054
-178	10350.1329
-177	10544.3551
-176	10580.7762
-175	10472.9712
-174	10290.0919
-173	10100.1846
-172	10132.8787
-171	10135.309
-170	9642.0738
-169	10180.7301
-168	10092.7602
-167	10211.0205
-166	10154.3543
-165	10279.7892
-164	10392.8721
-163	10322.2946
-162	10707.5351
-161	10387.8875
-160	10650.3831
-159	10778.2061
-158	10329.6328
-157	10625.1624
-156	10710.856
-155	10533.3161
-154	10530.663
-153	10475.898
-152	10769.4234
-151	10517.2293
-150	10281.8825
-149	10479.9524
-148	10535.3442
-147	10421.3974
-146	10281.523
-145	10732.8333
-144	10982.8101
-143	10837.511
-142	10521.2714
-141	10564.5248
-140	10671.3427
-139	10538.6593
-138	10812.786
-137	10543.8653
-136	10610.9493
-135	10949.7127
-134	11020.8773
-133	10901.6474
-132	11197.1461
-131	11023.0285
-130	11128.0974
-129	10987.7661
-128	11033.6909
-127	10840.0262
-126	11175.1083
-125	11203.9726
-124	11498.1639
-123	11699.5931
-122	11511.9472
-121	11757.0705
-120	11420.7066
-119	11344.812
-118	11189.1229
-117	11285.0872
-116	10817.7644
-115	10693.9938
-114	10999.4266
-113	10783.1409
-112	11215.7583
-111	11316.6055
-110	11555.8398
-109	11261.1864
-108	11424.0965
-107	11166.4753
-106	11164.0715
-105	10978.7989
-104	10896.9574
-103	11255.364
-102	11481.9518
-101	11437.6637
-100	11629.9746
-99	12207.2082
-98	12157.774
-97	11898.587
-96	11931.6264
-95	11583.5748
-94	11846.4313
-93	11853.5973
-92	11772.0747
-91	12268.5669
-90	12451.7102
-89	12180.2751
-88	12297.8767
-87	12359.2959
-86	11880.3824
-85	11649.8571
-84	11924.1001
-83	11733.583
-82	11989.5386
-81	11968.958
-80	12110.3426
-79	12137.2168
-78	12113.6545
-77	11889.9382
-76	12170.0572
-75	12305.9363
-74	12037.1913
-73	11792.6995
-72	12181.9794
-71	12261.0636
-70	12417.3391
-69	12985.5484
-68	12802.4793
-67	13054.8242
-66	13339.85
-65	13552.6132
-64	13805.4385
-63	14053.7339
-62	14023.6447
-61	14192.3555
-60	13922.5604
-59	14262.5627
-58	14112.5872
-57	13478.3371
-56	13281.3586
-55	13203.1653
-54	13026.4116
-53	12790.8971
-52	12548.5494
-51	12427.1397
-50	12496.8269
-49	12102.4964
-48	12472.0443
-47	12349.7693
-46	12315.8789
-45	12680.9612
-44	12454.2885
-43	12940.9004
-42	13032.3577
-41	12843.3409
-40	13053.6445
-39	13209.925
-38	13152.609
-37	13560.3951
-36	14213.7633
-35	14562.5382
-34	15261.8034
-33	16072.6329
-32	16234.9915
-31	16359.8074
-30	16917.116
-29	16275.9292
-28	15914.1725
-27	15336.829
-26	13866.3391
-25	12831.5252
-24	12927.7697
-23	12436.9545
-22	12586.6597
-21	13073.2613
-20	12843.8961
-19	13050.5354
-18	13711.1159
-17	13940.8598
-16	14553.0752
-15	15311.5316
-14	16121.862
-13	17317.3509
-12	19122.4621
-11	20144.2191
-10	21333.8697
-9	23082.4451
-8	25405.8163
-7	28526.4073
-6	31680.5354
-5	36997.6949
-4	43960.8833
-3	52134.4988
-2	60339.1505
-1	73066.3346
0	545477.0846
1	73066.3346
2	60339.1505
3	52134.4988
4	43960.8833
5	36997.6949
6	31680.5354
7	28526.4073
8	25405.8163
9	23082.4451
10	21333.8697
11	20144.2191
12	19122.4621
13	17317.3509
14	16121.862
15	15311.5316
16	14553.0752
17	13940.8598
18	13711.1159
19	13050.5354
20	12843.8961
21	13073.2613
22	12586.6597
23	12436.9545
24	12927.7697
25	12831.5252
26	13866.3391
27	15336.829
28	15914.1725
29	16275.9292
30	16917.116
31	16359.8074
32	16234.9915
33	16072.6329
34	15261.8034
35	14562.5382
36	14213.7633
37	13560.3951
38	13152.609
39	13209.925
40	13053.6445
41	12843.3409
42	13032.3577
43	12940.9004
44	12454.2885
45	12680.9612
46	12315.8789
47	12349.7693
48	12472.0443
49	12102.4964
50	12496.8269
51	12427.1397
52	12548.5494
53	12790.8971
54	13026.4116
55	13203.1653
56	13281.3586
57	13478.3371
58	14112.5872
59	14262.5627
60	13922.5604
61	14192.3555
62	14023.6447
63	14053.7339
64	13805.4385
65	13552.6132
66	13339.85
67	13054.8242
68	12802.4793
69	12985.5484
70	12417.3391
71	12261.0636
72	12181.9794
73	11792.6995
74	12037.1913
75	12305.9363
76	12170.0572
77	11889.9382
78	12113.6545
79	12137.2168
80	12110.3426
81	11968.958
82	11989.5386
83	11733.583
84	11924.1001
85	11649.8571
86	11880.3824
87	12359.2959
88	12297.8767
89	12180.2751
90	12451.7102
91	12268.5669
92	11772.0747
93	11853.5973
94	11846.4313
95	11583.5748
96	11931.6264
97	11898.587
98	12157.774
99	12207.2082
100	11629.9746
101	11437.6637
102	11481.9518
103	11255.364
104	10896.9574
105	10978.7989
106	11164.0715
107	11166.4753
108	11424.0965
109	11261.1864
110	11555.8398
111	11316.6055
112	11215.7583
113	10783.1409
114	10999.4266
115	10693.9938
116	10817.7644
117	11285.0872
118	11189.1229
119	11344.812
120	11420.7066
121	11757.0705
122	11511.9472
123	11699.5931
124	11498.1639
125	11203.9726
126	11175.1083
127	10840.0262
128	11033.6909
129	10987.7661
130	11128.0974
131	11023.0285
132	11197.1461
133	10901.6474
134	11020.8773
135	10949.7127
136	10610.9493
137	10543.8653
138	10812.786
139	10538.6593
140	10671.3427
141	10564.5248
142	10521.2714
143	10837.511
144	10982.8101
145	10732.8333
146	10281.523
147	10421.3974
148	10535.3442
149	10479.9524
150	10281.8825
151	10517.2293
152	10769.4234
153	10475.898
154	10530.663
155	10533.3161
156	10710.856
157	10625.1624
158	10329.6328
159	10778.2061
160	10650.3831
161	10387.8875
162	10707.5351
163	10322.2946
164	10392.8721
165	10279.7892
166	10154.3543
167	10211.0205
168	10092.7602
169	10180.7301
170	9642.0738
171	10135.309
172	10132.8787
173	10100.1846
174	10290.0919
175	10472.9712
176	10580.7762
177	10544.3551
178	10350.1329
179	10498.0054
180	10389.1361
181	10578.5048
182	10417.6048
183	10268.7485
184	10395.0209
185	10487.1195
186	10555.9588
187	10686.3604
188	10451.906
189	10423.2166
190	10083.1295
191	10169.8938
192	10187.1562
193	10042.3507
194	10086.9034
195	10596.65
196	10232.7806
197	10214.4675
198	10134.0327
199	10117.526
200	4918.7355
