Position	Value
-200	3425.7872
-199	6703.8016
-198	6688.4208
-197	6808.924
-196	6794.3496
-195	7089.2116
-194	7130.9922
-193	6939.1602
-192	7059.5867
-191	7049.3541
-190	7187.082
-189	7193.0828
-188	7147.2064
-187	7018.9706
-186	6763.5584
-185	7032.2547
-184	7165.6993
-183	7340.2542
-182	6728.1392
-181	7296.6026
-180	7020.8964
-179	7053.4699
-178	6811.9008
-177	7209.0901
-176	7102.0586
-175	6981.3343
-174	7100.9129
-173	6984.5491
-172	7022.8685
-171	7321.1823
-170	7130.7782
-169	7484.8056
-168	7069.0888
-167	7719.7724
-166	7449.5637
-165	7503.8023
-164	7246.3086
-163	7744.2664
-162	7418.5425
-161	7478.1263
-160	7702.2563
-159	7422.4354
-158	7444.5542
-157	7286.7288
-156	7703.5337
-155	7511.4186
-154	7137.2362
-153	7371.9607
-152	7436.1539
-151	7217.3711
-150	6989.6868
-149	7187.3291
-148	7270.2287
-147	7193.3484
-146	7151.943
-145	7558.3334
-144	7768.5546
-143	7625.376
-142	7417.4327
-141	7079.9208
-140	7168.7549
-139	7253.9843
-138	7227.5028
-137	7288.6126
-136	7380.3182
-135	7409.9231
-134	7584.3647
-133	7263.647
-132	7630.519
-131	7376.5619
-130	7437.4134
-129	7819.1808
-128	7586.966
-127	7475.67
-126	7626.065
-125	7472.2622
-124	7239.9508
-123	7432.9655
-122	7313.4966
-121	7393.258
-120	7547.4224
-119	7577.2731
-118	7277.1796
-117	7347.1915
-116	7139.6012
-115	7344.6738
-114	7549.3022
-113	7523.3806
-112	7280.6006
-111	7689.7511
-110	7409.1586
-109	7495.982
-108	7882.9236
-107	7756.6504
-106	7504.7665
-105	7741.5246
-104	7483.4375
-103	7385.4007
-102	7732.3376
-101	7548.69
-100	7648.8606
-99	7975.8083
-98	7966.2159
-97	7944.1957
-96	8035.7332
-95	8097.1458
-94	7896.963
-93	7541.7351
-92	7571.385
-91	7702.51
-90	7814.6965
-89	7867.4578
-88	7888.6502
-87	7918.3618
-86	7851.8508
-85	7518.6965
-84	7718.2701
-83	7225.745
-82	7561.5611
-81	7827.5202
-80	7625.1002
-79	8059.0886
-78	7551.2636
-77	7900.9912
-76	7628.3318
-75	7839.7655
-74	7775.5325
-73	7876.6416
-72	8079.0348
-71	7925.2021
-70	8301.1573
-69	8747.937
-68	8417.8636
-67	8273.7247
-66	8846.1495
-65	8847.5826
-64	9037.0843
-63	8980.0476
-62	8797.8083
-61	9056.2661
-60	8352.4707
-59	8527.5137
-58	8826.8
-57	8439.7834
-56	8449.721
-55	8255.944
-54	8139.8387
-53	8319.967
-52	8305.9747
-51	8079.0095
-50	8034.2628
-49	8415.6655
-48	8411.7535
-47	8171.7737
-46	8289.1568
-45	8118.9619
-44	8092.8404
-43	8534.2733
-42	8580.3614
-41	8603.1267
-40	8704.6714
-39	8537.7167
-38	9005.306
-37	9175.1875
-36	9718.7526
-35	9602.6591
-34	9825.477
-33	9850.6318
-32	9989.2713
-31	9964.3143
-30	10146.7977
-29	10084.9785
-28	9519.593
-27	8655.6134
-26	8521.364
-25	8412.6273
-24	8839.3681
-23	8863.5306
-22	9126.2827
-21	9932.5219
-20	9768.6319
-19	10307.5241
-18	10246.3192
-17	10221.7289
-16	10425.3298
-15	10763.3747
-14	11049.7472
-13	11855.3553
-12	12168.9157
-11	12767.1649
-10	12777.9793
-9	13759.3275
-8	14148.5772
-7	15714.6244
-6	15872.0526
-5	17617.5797
-4	20427.8355
-3	23895.8065
-2	23739.0676
-1	27276.0435
0	169620.3644
1	27276.0435
2	23739.0676
3	23895.8065
4	20427.8355
5	17617.5797
6	15872.0526
7	15714.6244
8	14148.5772
9	13759.3275
10	12777.9793
11	12767.1649
12	12168.9157
13	11855.3553
14	11049.7472
15	10763.3747
16	10425.3298
17	10221.7289
18	10246.3192
19	10307.5241
20	9768.6319
21	9932.5219
22	9126.2827
23	8863.5306
24	8839.3681
25	8412.6273
26	8521.364
27	8655.6134
28	9519.593
29	10084.9785
30	10146.7977
31	9964.3143
32	9989.2713
33	9850.6318
34	9825.477
35	9602.6591
36	9718.7526
37	9175.1875
38	9005.306
39	8537.7167
40	8704.6714
41	8603.1267
42	8580.3614
43	8534.2733
44	8092.8404
45	8118.9619
46	8289.1568
47	8171.7737
48	8411.7535
49	8415.6655
50	8034.2628
51	8079.0095
52	8305.9747
53	8319.967
54	8139.8387
55	8255.944
56	8449.721
57	8439.7834
58	8826.8
59	8527.5137
60	8352.4707
61	9056.2661
62	8797.8083
63	8980.0476
64	9037.0843
65	8847.5826
66	8846.1495
67	8273.7247
68	8417.8636
69	8747.937
70	8301.1573
71	7925.2021
72	8079.0348
73	7876.6416
74	7775.5325
75	7839.7655
76	7628.3318
77	7900.9912
78	7551.2636
79	8059.0886
80	7625.1002
81	7827.5202
82	7561.5611
83	7225.745
84	7718.2701
85	7518.6965
86	7851.8508
87	7918.3618
88	7888.6502
89	7867.4578
90	7814.6965
91	7702.51
92	7571.385
93	7541.7351
94	7896.963
95	8097.1458
96	8035.7332
97	7944.1957
98	7966.2159
99	7975.8083
100	7648.8606
101	7548.69
102	7732.3376
103	7385.4007
104	7483.4375
105	7741.5246
106	7504.7665
107	7756.6504
108	7882.9236
109	7495.982
110	7409.1586
111	7689.7511
112	7280.6006
113	7523.3806
114	7549.3022
115	7344.6738
116	7139.6012
117	7347.1915
118	7277.1796
119	7577.2731
120	7547.4224
121	7393.258
122	7313.4966
123	7432.9655
124	7239.9508
125	7472.2622
126	7626.065
127	7475.67
128	7586.966
129	7819.1808
130	7437.4134
131	7376.5619
132	7630.519
133	7263.647
134	7584.3647
135	7409.9231
136	7380.3182
137	7288.6126
138	7227.5028
139	7253.9843
140	7168.7549
141	7079.9208
142	7417.4327
143	7625.376
144	7768.5546
145	7558.3334
146	7151.943
147	7193.3484
148	7270.2287
149	7187.3291
150	6989.6868
151	7217.3711
152	7436.1539
153	7371.9607
154	7137.2362
155	7511.4186
156	7703.5337
157	7286.7288
158	7444.5542
159	7422.4354
160	7702.2563
161	7478.1263
162	7418.5425
163	7744.2664
164	7246.3086
165	7503.8023
166	7449.5637
167	7719.7724
168	7069.0888
169	7484.8056
170	7130.7782
171	7321.1823
172	7022.8685
173	6984.5491
174	7100.9129
175	6981.3343
176	7102.0586
177	7209.0901
178	6811.9008
179	7053.4699
180	7020.8964
181	7296.6026
182	6728.1392
183	7340.2542
184	7165.6993
185	7032.2547
186	6763.5584
187	7018.9706
188	7147.2064
189	7193.0828
190	7187.082
191	7049.3541
192	7059.5867
193	6939.1602
194	7130.9922
195	7089.2116
196	6794.3496
197	6808.924
198	6688.4208
199	6703.8016
200	3425.7872
