Position	Value
-200	24242.5198
-199	49635.4917
-198	50015.8969
-197	49868.0073
-196	49923.2716
-195	50442.7636
-194	49926.2037
-193	51195.1695
-192	51048.6202
-191	50907.066
-190	51477.2794
-189	51640.8756
-188	51987.4391
-187	51514.239
-186	52013.6299
-185	51577.606
-184	52201.1525
-183	51727.4829
-182	51073.5212
-181	52179.9934
-180	52396.4626
-179	50979.8245
-178	51675.9671
-177	52034.1289
-176	51642.724
-175	51620.2099
-174	50956.8558
-173	50647.1044
-172	50988.1824
-171	51265.3593
-170	50356.3252
-169	51621.4868
-168	51194.747
-167	51922.1517
-166	51531.4187
-165	52214.2968
-164	52333.1039
-163	52669.7461
-162	52547.7844
-161	51649.0355
-160	52770.9735
-159	52840.0532
-158	52748.2265
-157	53304.7896
-156	54781.4835
-155	53719.2475
-154	53834.9823
-153	53953.3104
-152	54115.2239
-151	53758.0934
-150	52551.6804
-149	53034.4895
-148	52641.8951
-147	52305.4357
-146	51411.9477
-145	52054.9086
-144	53228.0974
-143	52344.7837
-142	51737.9175
-141	51783.0144
-140	51961.9536
-139	52375.5621
-138	52542.5282
-137	52656.4281
-136	52920.0249
-135	54208.5123
-134	54652.4583
-133	53859.557
-132	55696.3482
-131	54878.7358
-130	55419.3951
-129	55702.4402
-128	55912.0318
-127	55196.2771
-126	56699.7866
-125	56421.578
-124	57477.2931
-123	57719.6219
-122	57450.2209
-121	57128.2042
-120	57471.6513
-119	56283.443
-118	56019.7566
-117	55965.3089
-116	54044.5283
-115	54375.7266
-114	54740.6144
-113	54289.1483
-112	54606.2324
-111	55038.214
-110	55178.0239
-109	53994.7138
-108	54623.4051
-107	54554.2077
-106	54524.1505
-105	54784.5422
-104	54394.9447
-103	55105.3846
-102	56567.0591
-101	56299.0992
-100	57374.0108
-99	59194.9418
-98	58877.3931
-97	58994.5621
-96	60404.9543
-95	59791.0027
-94	60440.0888
-93	60186.6301
-92	59705.6367
-91	60013.7123
-90	60141.4761
-89	59967.3705
-88	59231.0978
-87	58268.5315
-86	57475.1195
-85	56138.5832
-84	56498.6739
-83	55063.5997
-82	55481.5321
-81	55136.8544
-80	54825.7821
-79	55433.6194
-78	55632.3615
-77	55761.6377
-76	56178.0981
-75	56352.301
-74	55758.3302
-73	56131.2993
-72	57627.6963
-71	57868.8997
-70	58728.6417
-69	61131.7625
-68	61624.9972
-67	62856.9276
-66	64474.6996
-65	65310.2315
-64	65502.8052
-63	66306.658
-62	66785.5556
-61	67228.789
-60	66171.9137
-59	66970.9615
-58	64989.5251
-57	63857.4547
-56	61746.8214
-55	61245.2437
-54	59197.7899
-53	58560.938
-52	57857.3508
-51	57432.8584
-50	56977.2283
-49	57091.9233
-48	57836.7435
-47	57465.0433
-46	57789.4915
-45	58630.6386
-44	58426.4072
-43	58902.1548
-42	60612.866
-41	59256.27
-40	60247.3961
-39	62103.23
-38	63423.4605
-37	64452.0458
-36	66750.389
-35	69665.189
-34	72203.6808
-33	75760.455
-32	75675.3725
-31	76078.2855
-30	78672.5351
-29	77759.554
-28	75322.5984
-27	70975.3164
-26	63005.4191
-25	57443.703
-24	58746.9988
-23	57547.0109
-22	56927.6006
-21	58642.5515
-20	58370.9229
-19	59040.838
-18	60005.5816
-17	60977.9293
-16	62824.144
-15	62929.5601
-14	63836.8936
-13	67116.8445
-12	72871.5272
-11	76504.1384
-10	79010.1667
-9	83117.7446
-8	87270.1491
-7	95885.3583
-6	104241.5197
-5	116590.1671
-4	130884.3958
-3	151464.4042
-2	168055.1642
-1	178948.215
0	1657830.7846
1	178948.215
2	168055.1642
3	151464.4042
4	130884.3958
5	116590.1671
6	104241.5197
7	95885.3583
8	87270.1491
9	83117.7446
10	79010.1667
11	76504.1384
12	72871.5272
13	67116.8445
14	63836.8936
15	62929.5601
16	62824.144
17	60977.9293
18	60005.5816
19	59040.838
20	58370.9229
21	58642.5515
22	56927.6006
23	57547.0109
24	58746.9988
25	57443.703
26	63005.4191
27	70975.3164
28	75322.5984
29	77759.554
30	78672.5351
31	76078.2855
32	75675.3725
33	75760.455
34	72203.6808
35	69665.189
36	66750.389
37	64452.0458
38	63423.4605
39	62103.23
40	60247.3961
41	59256.27
42	60612.866
43	58902.1548
44	58426.4072
45	58630.6386
46	57789.4915
47	57465.0433
48	57836.7435
49	57091.9233
50	56977.2283
51	57432.8584
52	57857.3508
53	58560.938
54	59197.7899
55	61245.2437
56	61746.8214
57	63857.4547
58	64989.5251
59	66970.9615
60	66171.9137
61	67228.789
62	66785.5556
63	66306.658
64	65502.8052
65	65310.2315
66	64474.6996
67	62856.9276
68	61624.9972
69	61131.7625
70	58728.6417
71	57868.8997
72	57627.6963
73	56131.2993
74	55758.3302
75	56352.301
76	56178.0981
77	55761.6377
78	55632.3615
79	55433.6194
80	54825.7821
81	55136.8544
82	55481.5321
83	55063.5997
84	56498.6739
85	56138.5832
86	57475.1195
87	58268.5315
88	59231.0978
89	59967.3705
90	60141.4761
91	60013.7123
92	59705.6367
93	60186.6301
94	60440.0888
95	59791.0027
96	60404.9543
97	58994.5621
98	58877.3931
99	59194.9418
100	57374.0108
101	56299.0992
102	56567.0591
103	55105.3846
104	54394.9447
105	54784.5422
106	54524.1505
107	54554.2077
108	54623.4051
109	53994.7138
110	55178.0239
111	55038.214
112	54606.2324
113	54289.1483
114	54740.6144
115	54375.7266
116	54044.5283
117	55965.3089
118	56019.7566
119	56283.443
120	57471.6513
121	57128.2042
122	57450.2209
123	57719.6219
124	57477.2931
125	56421.578
126	56699.7866
127	55196.2771
128	55912.0318
129	55702.4402
130	55419.3951
131	54878.7358
132	55696.3482
133	53859.557
134	54652.4583
135	54208.5123
136	52920.0249
137	52656.4281
138	52542.5282
139	52375.5621
140	51961.9536
141	51783.0144
142	51737.9175
143	52344.7837
144	53228.0974
145	52054.9086
146	51411.9477
147	52305.4357
148	52641.8951
149	53034.4895
150	52551.6804
151	53758.0934
152	54115.2239
153	53953.3104
154	53834.9823
155	53719.2475
156	54781.4835
157	53304.7896
158	52748.2265
159	52840.0532
160	52770.9735
161	51649.0355
162	52547.7844
163	52669.7461
164	52333.1039
165	52214.2968
166	51531.4187
167	51922.1517
168	51194.747
169	51621.4868
170	50356.3252
171	51265.3593
172	50988.1824
173	50647.1044
174	50956.8558
175	51620.2099
176	51642.724
177	52034.1289
178	51675.9671
179	50979.8245
180	52396.4626
181	52179.9934
182	51073.5212
183	51727.4829
184	52201.1525
185	51577.606
186	52013.6299
187	51514.239
188	51987.4391
189	51640.8756
190	51477.2794
191	50907.066
192	51048.6202
193	51195.1695
194	49926.2037
195	50442.7636
196	49923.2716
197	49868.0073
198	50015.8969
199	49635.4917
200	24242.5198
