Position	Value
-200	4119.8792
-199	8361.4045
-198	8490.218
-197	8345.7539
-196	8145.5486
-195	8381.7177
-194	8198.6078
-193	8339.2804
-192	8421.8229
-191	8269.7103
-190	8488.1397
-189	8457.4412
-188	8481.0487
-187	8746.5706
-186	8636.2245
-185	8382.1645
-184	8542.6408
-183	8585.8536
-182	8495.8817
-181	8561.8489
-180	8455.4696
-179	8751.2731
-178	8624.922
-177	8519.87
-176	8648.1317
-175	8604.344
-174	8452.8811
-173	8288.6559
-172	8361.0383
-171	8471.9831
-170	8223.8981
-169	8618.9361
-168	8519.201
-167	8622.6119
-166	8456.924
-165	8721.4481
-164	8723.7888
-163	8731.39
-162	8582.3464
-161	8405.1429
-160	8663.8257
-159	9018.5474
-158	8712.5933
-157	8828.9079
-156	8924.9699
-155	8803.9121
-154	8809.7441
-153	8705.1679
-152	8927.0705
-151	8828.9274
-150	8401.8133
-149	8437.0963
-148	8498.3449
-147	8398.1272
-146	8548.1286
-145	8663.3139
-144	8840.9885
-143	8705.7334
-142	8494.5467
-141	8469.9437
-140	8553.6074
-139	8788.8676
-138	8835.5729
-137	8641.8143
-136	8802.2721
-135	8876.1313
-134	9143.4384
-133	9101.4464
-132	9516.4361
-131	9458.9613
-130	9412.5155
-129	9655.5465
-128	9698.49
-127	9452.5249
-126	9593.7869
-125	9567.5461
-124	9810.9653
-123	9777.9246
-122	9857.3152
-121	9878.9616
-120	9800.6759
-119	9555.5865
-118	9495.692
-117	9305.428
-116	9170.1205
-115	8850.092
-114	9104.4277
-113	9273.2542
-112	9315.0263
-111	9365.9132
-110	9519.645
-109	9122.6043
-108	9383.6742
-107	9328.029
-106	9205.723
-105	9230.7999
-104	9188.8732
-103	9139.991
-102	9570.7779
-101	9466.3089
-100	9615.9561
-99	9837.3035
-98	10100.6951
-97	10015.2262
-96	9943.1632
-95	9918.0764
-94	10047.863
-93	10088.2215
-92	10141.0592
-91	10264.9947
-90	10342.4173
-89	9993.7575
-88	10315.3884
-87	10071.4506
-86	9978.8895
-85	9651.58
-84	9692.9471
-83	9441.8419
-82	9447.9787
-81	9557.9817
-80	9607.765
-79	9634.2522
-78	9790.8327
-77	9728.544
-76	9877.8468
-75	9715.7926
-74	9664.5092
-73	9757.3666
-72	9910.2956
-71	9891.0059
-70	10321.9806
-69	10760.9322
-68	10955.2957
-67	10950.9637
-66	11415.1015
-65	11716.3812
-64	11875.2278
-63	11955.8661
-62	11694.5101
-61	11832.2968
-60	11739.639
-59	11769.3648
-58	11494.7674
-57	11291.3609
-56	10949.4066
-55	10763.7759
-54	10452.6255
-53	10476.2798
-52	10136.857
-51	9862.8871
-50	9851.0552
-49	10012.8802
-48	9948.7714
-47	9938.9067
-46	9838.0395
-45	10339.9392
-44	10412.8937
-43	10254.3909
-42	10658.6484
-41	10393.1371
-40	10562.1445
-39	11104.6653
-38	11109.5836
-37	11209.1802
-36	11708.4776
-35	12150.9647
-34	12772.6303
-33	13654.4758
-32	13608.3026
-31	13889.2832
-30	13683.6989
-29	13228.5453
-28	13654.569
-27	13359.8969
-26	11400.6767
-25	10439.0432
-24	10209.3945
-23	9903.9995
-22	9971.858
-21	10397.3953
-20	10087.3666
-19	10424.6916
-18	10649.3407
-17	11046.6676
-16	11400.4148
-15	12050.243
-14	11987.843
-13	12512.2071
-12	14356.3772
-11	15400.627
-10	16211.5414
-9	17176.6656
-8	18740.0819
-7	21296.6425
-6	23563.1882
-5	27514.0269
-4	33067.852
-3	40995.3941
-2	47714.7843
-1	58379.7423
0	539996.7141
1	58379.7423
2	47714.7843
3	40995.3941
4	33067.852
5	27514.0269
6	23563.1882
7	21296.6425
8	18740.0819
9	17176.6656
10	16211.5414
11	15400.627
12	14356.3772
13	12512.2071
14	11987.843
15	12050.243
16	11400.4148
17	11046.6676
18	10649.3407
19	10424.6916
20	10087.3666
21	10397.3953
22	9971.858
23	9903.9995
24	10209.3945
25	10439.0432
26	11400.6767
27	13359.8969
28	13654.569
29	13228.5453
30	13683.6989
31	13889.2832
32	13608.3026
33	13654.4758
34	12772.6303
35	12150.9647
36	11708.4776
37	11209.1802
38	11109.5836
39	11104.6653
40	10562.1445
41	10393.1371
42	10658.6484
43	10254.3909
44	10412.8937
45	10339.9392
46	9838.0395
47	9938.9067
48	9948.7714
49	10012.8802
50	9851.0552
51	9862.8871
52	10136.857
53	10476.2798
54	10452.6255
55	10763.7759
56	10949.4066
57	11291.3609
58	11494.7674
59	11769.3648
60	11739.639
61	11832.2968
62	11694.5101
63	11955.8661
64	11875.2278
65	11716.3812
66	11415.1015
67	10950.9637
68	10955.2957
69	10760.9322
70	10321.9806
71	9891.0059
72	9910.2956
73	9757.3666
74	9664.5092
75	9715.7926
76	9877.8468
77	9728.544
78	9790.8327
79	9634.2522
80	9607.765
81	9557.9817
82	9447.9787
83	9441.8419
84	9692.9471
85	9651.58
86	9978.8895
87	10071.4506
88	10315.3884
89	9993.7575
90	10342.4173
91	10264.9947
92	10141.0592
93	10088.2215
94	10047.863
95	9918.0764
96	9943.1632
97	10015.2262
98	10100.6951
99	9837.3035
100	9615.9561
101	9466.3089
102	9570.7779
103	9139.991
104	9188.8732
105	9230.7999
106	9205.723
107	9328.029
108	9383.6742
109	9122.6043
110	9519.645
111	9365.9132
112	9315.0263
113	9273.2542
114	9104.4277
115	8850.092
116	9170.1205
117	9305.428
118	9495.692
119	9555.5865
120	9800.6759
121	9878.9616
122	9857.3152
123	9777.9246
124	9810.9653
125	9567.5461
126	9593.7869
127	9452.5249
128	9698.49
129	9655.5465
130	9412.5155
131	9458.9613
132	9516.4361
133	9101.4464
134	9143.4384
135	8876.1313
136	8802.2721
137	8641.8143
138	8835.5729
139	8788.8676
140	8553.6074
141	8469.9437
142	8494.5467
143	8705.7334
144	8840.9885
145	8663.3139
146	8548.1286
147	8398.1272
148	8498.3449
149	8437.0963
150	8401.8133
151	8828.9274
152	8927.0705
153	8705.1679
154	8809.7441
155	8803.9121
156	8924.9699
157	8828.9079
158	8712.5933
159	9018.5474
160	8663.8257
161	8405.1429
162	8582.3464
163	8731.39
164	8723.7888
165	8721.4481
166	8456.924
167	8622.6119
168	8519.201
169	8618.9361
170	8223.8981
171	8471.9831
172	8361.0383
173	8288.6559
174	8452.8811
175	8604.344
176	8648.1317
177	8519.87
178	8624.922
179	8751.2731
180	8455.4696
181	8561.8489
182	8495.8817
183	8585.8536
184	8542.6408
185	8382.1645
186	8636.2245
187	8746.5706
188	8481.0487
189	8457.4412
190	8488.1397
191	8269.7103
192	8421.8229
193	8339.2804
194	8198.6078
195	8381.7177
196	8145.5486
197	8345.7539
198	8490.218
199	8361.4045
200	4119.8792
