Position	Value
-200	20659.3
-199	20732.4
-198	20565.1
-197	20587.9
-196	19842.8
-195	20512.9
-194	20439.9
-193	19956
-192	19966.8
-191	19981.9
-190	19838.5
-189	20452
-188	20688
-187	19938.9
-186	20207
-185	20004.5
-184	20615.6
-183	20334.5
-182	19950.2
-181	20281.5
-180	20625.1
-179	20362.8
-178	19748.4
-177	20349.9
-176	20357.8
-175	20103.1
-174	20767.7
-173	19994.4
-172	20439
-171	20723.2
-170	19671.9
-169	21107.6
-168	20551.1
-167	20665.5
-166	20784
-165	20991.2
-164	20688.6
-163	21053.7
-162	20737.9
-161	20641.7
-160	20995.3
-159	20853.9
-158	21065.4
-157	20611.6
-156	22018.1
-155	20946.3
-154	20806.5
-153	20893.5
-152	21509.9
-151	20904.3
-150	20946.7
-149	21448.6
-148	21614.6
-147	21320.6
-146	20628.2
-145	21729.1
-144	21786.2
-143	21003.5
-142	21089.7
-141	21047.6
-140	21802.4
-139	21720.5
-138	21876.1
-137	21702
-136	21559.5
-135	21841.1
-134	21688.1
-133	21084.4
-132	21895
-131	21612
-130	21850
-129	21916.8
-128	21252.7
-127	21703.6
-126	21898.8
-125	21558
-124	21380.5
-123	21658.7
-122	21629.7
-121	21145.7
-120	21649.9
-119	21483.7
-118	21339.7
-117	21237.9
-116	21000.7
-115	21676.5
-114	21785.7
-113	21753.7
-112	21432.3
-111	22219.7
-110	21735.2
-109	21728.1
-108	21798.8
-107	22256.2
-106	22369.5
-105	22281.7
-104	22601.8
-103	22263.7
-102	22838.2
-101	22734.2
-100	22936.9
-99	23341.1
-98	23259.9
-97	23105.6
-96	23430.8
-95	23502.5
-94	23743.7
-93	23529.2
-92	23568.4
-91	23453.1
-90	22623.3
-89	23063.1
-88	22789.4
-87	22437.5
-86	22882.2
-85	21437.7
-84	22773.5
-83	21279.3
-82	21513
-81	22382.2
-80	21803
-79	22394.5
-78	21297.7
-77	22058.4
-76	22725.6
-75	22516.9
-74	22043.8
-73	22483.9
-72	23115.3
-71	22556.6
-70	23693.9
-69	24149.6
-68	24341.3
-67	24148.4
-66	25118.7
-65	25260.4
-64	25546.9
-63	26166.4
-62	25804.2
-61	25774
-60	25511.8
-59	25054.9
-58	25852.1
-57	25013.7
-56	24086.3
-55	24397.6
-54	24316.3
-53	23790.7
-52	23792.1
-51	23754.2
-50	23799.9
-49	23651.4
-48	23655.7
-47	23601.2
-46	23090.9
-45	23699.5
-44	23247.7
-43	23382
-42	24063.4
-41	23797.7
-40	23710.6
-39	24839.9
-38	24614.7
-37	25435.2
-36	25871.5
-35	26251.7
-34	26173.4
-33	26836.9
-32	27917.9
-31	28095.1
-30	27997
-29	26936.5
-28	27407
-27	26930.2
-26	24632.8
-25	24128.7
-24	24282.2
-23	23763.4
-22	24363.4
-21	25149.7
-20	25485.6
-19	26494.5
-18	27982.2
-17	28147.3
-16	28715.5
-15	30569.2
-14	30987.3
-13	32274
-12	34676.5
-11	35919.6
-10	37427.4
-9	40527.2
-8	42525.2
-7	45695.5
-6	49077
-5	53667.2
-4	59536.5
-3	67714.6
-2	61939.8
-1	61134.3
0	370412
1	61134.3
2	61939.8
3	67714.6
4	59536.5
5	53667.2
6	49077
7	45695.5
8	42525.2
9	40527.2
10	37427.4
11	35919.6
12	34676.5
13	32274
14	30987.3
15	30569.2
16	28715.5
17	28147.3
18	27982.2
19	26494.5
20	25485.6
21	25149.7
22	24363.4
23	23763.4
24	24282.2
25	24128.7
26	24632.8
27	26930.2
28	27407
29	26936.5
30	27997
31	28095.1
32	27917.9
33	26836.9
34	26173.4
35	26251.7
36	25871.5
37	25435.2
38	24614.7
39	24839.9
40	23710.6
41	23797.7
42	24063.4
43	23382
44	23247.7
45	23699.5
46	23090.9
47	23601.2
48	23655.7
49	23651.4
50	23799.9
51	23754.2
52	23792.1
53	23790.7
54	24316.3
55	24397.6
56	24086.3
57	25013.7
58	25852.1
59	25054.9
60	25511.8
61	25774
62	25804.2
63	26166.4
64	25546.9
65	25260.4
66	25118.7
67	24148.4
68	24341.3
69	24149.6
70	23693.9
71	22556.6
72	23115.3
73	22483.9
74	22043.8
75	22516.9
76	22725.6
77	22058.4
78	21297.7
79	22394.5
80	21803
81	22382.2
82	21513
83	21279.3
84	22773.5
85	21437.7
86	22882.2
87	22437.5
88	22789.4
89	23063.1
90	22623.3
91	23453.1
92	23568.4
93	23529.2
94	23743.7
95	23502.5
96	23430.8
97	23105.6
98	23259.9
99	23341.1
100	22936.9
101	22734.2
102	22838.2
103	22263.7
104	22601.8
105	22281.7
106	22369.5
107	22256.2
108	21798.8
109	21728.1
110	21735.2
111	22219.7
112	21432.3
113	21753.7
114	21785.7
115	21676.5
116	21000.7
117	21237.9
118	21339.7
119	21483.7
120	21649.9
121	21145.7
122	21629.7
123	21658.7
124	21380.5
125	21558
126	21898.8
127	21703.6
128	21252.7
129	21916.8
130	21850
131	21612
132	21895
133	21084.4
134	21688.1
135	21841.1
136	21559.5
137	21702
138	21876.1
139	21720.5
140	21802.4
141	21047.6
142	21089.7
143	21003.5
144	21786.2
145	21729.1
146	20628.2
147	21320.6
148	21614.6
149	21448.6
150	20946.7
151	20904.3
152	21509.9
153	20893.5
154	20806.5
155	20946.3
156	22018.1
157	20611.6
158	21065.4
159	20853.9
160	20995.3
161	20641.7
162	20737.9
163	21053.7
164	20688.6
165	20991.2
166	20784
167	20665.5
168	20551.1
169	21107.6
170	19671.9
171	20723.2
172	20439
173	19994.4
174	20767.7
175	20103.1
176	20357.8
177	20349.9
178	19748.4
179	20362.8
180	20625.1
181	20281.5
182	19950.2
183	20334.5
184	20615.6
185	20004.5
186	20207
187	19938.9
188	20688
189	20452
190	19838.5
191	19981.9
192	19966.8
193	19956
194	20439.9
195	20512.9
196	19842.8
197	20587.9
198	20565.1
199	20732.4
200	20659.3
