Position	Value
-200	4718.8103
-199	9253.7671
-198	9243.3139
-197	9292.3259
-196	9210.4174
-195	9530.4208
-194	9508.7712
-193	9662.5644
-192	9685.0062
-191	9549.8422
-190	9420.735
-189	9795.4198
-188	10018.7473
-187	9845.7511
-186	9962.7686
-185	9513.8672
-184	9729.6406
-183	9736.0653
-182	9401.5776
-181	9751.1002
-180	9865.5903
-179	9641.1703
-178	9478.571
-177	9533.2614
-176	9595.2652
-175	9623.9842
-174	9295.3032
-173	9351.1916
-172	9262.6995
-171	9525.7096
-170	9358.7502
-169	9580.2155
-168	9605.1537
-167	9754.8096
-166	9866.5234
-165	9867.8065
-164	10110.8206
-163	9955.5052
-162	9884.2429
-161	9708.4288
-160	10258.4424
-159	9813.6638
-158	9973.7671
-157	10355.3584
-156	10534.962
-155	10503.3304
-154	10240.5473
-153	10361.4108
-152	10459.1288
-151	10288.4258
-150	10093.9679
-149	10124.1821
-148	10029.0106
-147	10058.9791
-146	9585.1118
-145	10416.009
-144	10157.133
-143	9852.3037
-142	9895.4761
-141	10093.0399
-140	9851.2462
-139	10350.7662
-138	10146.3488
-137	10631.2144
-136	10116.4722
-135	10221.2399
-134	10188.8274
-133	10170.6344
-132	10206.2785
-131	10553.2171
-130	10428.7267
-129	10533.9225
-128	10522.5591
-127	10495.525
-126	10960.7118
-125	10575.6501
-124	10865.4734
-123	10814.9269
-122	11016.6222
-121	10825.3104
-120	10505.3518
-119	10674.8043
-118	10507.3545
-117	10356.3109
-116	9880.067
-115	10024.5362
-114	9965.5897
-113	9980.9683
-112	9941.7561
-111	10368.7194
-110	9834.8134
-109	9926.855
-108	9993.9339
-107	10087.8599
-106	10165.407
-105	9973.1985
-104	10264.4861
-103	10226.1099
-102	10884.189
-101	10658.5363
-100	11066.0257
-99	11328.6481
-98	11073.6022
-97	11161.9821
-96	11035.2894
-95	11571.8685
-94	11654.0003
-93	11693.1415
-92	11969.7613
-91	11554.4762
-90	11024.6525
-89	11303.03
-88	11365.5221
-87	10857.3519
-86	10696.2354
-85	9951.1082
-84	10609.3719
-83	10126.6885
-82	9934.89
-81	10125.264
-80	10051.2547
-79	10407.3653
-78	10193.8187
-77	10172.0819
-76	10295.4272
-75	10349.0525
-74	10151.8361
-73	10666.1932
-72	10880.2863
-71	10731.0832
-70	11082.4264
-69	11511.2393
-68	11546.3949
-67	11606.6514
-66	12055.4327
-65	12529.184
-64	12532.0769
-63	13011.7275
-62	12758.4212
-61	12703.024
-60	12607.5722
-59	12106.8455
-58	12480.3704
-57	12090.4053
-56	11261.0741
-55	11011.2971
-54	10865.3535
-53	10530.0702
-52	10315.7159
-51	10591.9262
-50	10560.3994
-49	10271.6755
-48	10129.7157
-47	10196.7341
-46	10088.7368
-45	10405.133
-44	10903.5928
-43	10584.2564
-42	11062.3163
-41	10947.0035
-40	11223.3813
-39	11696.4907
-38	11707.9987
-37	12263.1473
-36	12638.5951
-35	13261.8924
-34	13243.5148
-33	13858.5209
-32	13830.6991
-31	14267.2456
-30	15050.2963
-29	14796.1612
-28	14561.0892
-27	13234.0251
-26	11954.989
-25	11557.1746
-24	11653.002
-23	11573.1563
-22	11881.3413
-21	11704.2112
-20	11848.7758
-19	12304.1383
-18	12438.27
-17	12451.9416
-16	13058.2123
-15	13461.7428
-14	13557.2269
-13	14768.6142
-12	16673.3874
-11	18102.66
-10	19572.5801
-9	21852.8177
-8	23244.4599
-7	27006.0987
-6	29831.924
-5	34912.4382
-4	39022.5676
-3	44522.0913
-2	49127.963
-1	51049.5716
0	447820.9801
1	51049.5716
2	49127.963
3	44522.0913
4	39022.5676
5	34912.4382
6	29831.924
7	27006.0987
8	23244.4599
9	21852.8177
10	19572.5801
11	18102.66
12	16673.3874
13	14768.6142
14	13557.2269
15	13461.7428
16	13058.2123
17	12451.9416
18	12438.27
19	12304.1383
20	11848.7758
21	11704.2112
22	11881.3413
23	11573.1563
24	11653.002
25	11557.1746
26	11954.989
27	13234.0251
28	14561.0892
29	14796.1612
30	15050.2963
31	14267.2456
32	13830.6991
33	13858.5209
34	13243.5148
35	13261.8924
36	12638.5951
37	12263.1473
38	11707.9987
39	11696.4907
40	11223.3813
41	10947.0035
42	11062.3163
43	10584.2564
44	10903.5928
45	10405.133
46	10088.7368
47	10196.7341
48	10129.7157
49	10271.6755
50	10560.3994
51	10591.9262
52	10315.7159
53	10530.0702
54	10865.3535
55	11011.2971
56	11261.0741
57	12090.4053
58	12480.3704
59	12106.8455
60	12607.5722
61	12703.024
62	12758.4212
63	13011.7275
64	12532.0769
65	12529.184
66	12055.4327
67	11606.6514
68	11546.3949
69	11511.2393
70	11082.4264
71	10731.0832
72	10880.2863
73	10666.1932
74	10151.8361
75	10349.0525
76	10295.4272
77	10172.0819
78	10193.8187
79	10407.3653
80	10051.2547
81	10125.264
82	9934.89
83	10126.6885
84	10609.3719
85	9951.1082
86	10696.2354
87	10857.3519
88	11365.5221
89	11303.03
90	11024.6525
91	11554.4762
92	11969.7613
93	11693.1415
94	11654.0003
95	11571.8685
96	11035.2894
97	11161.9821
98	11073.6022
99	11328.6481
100	11066.0257
101	10658.5363
102	10884.189
103	10226.1099
104	10264.4861
105	9973.1985
106	10165.407
107	10087.8599
108	9993.9339
109	9926.855
110	9834.8134
111	10368.7194
112	9941.7561
113	9980.9683
114	9965.5897
115	10024.5362
116	9880.067
117	10356.3109
118	10507.3545
119	10674.8043
120	10505.3518
121	10825.3104
122	11016.6222
123	10814.9269
124	10865.4734
125	10575.6501
126	10960.7118
127	10495.525
128	10522.5591
129	10533.9225
130	10428.7267
131	10553.2171
132	10206.2785
133	10170.6344
134	10188.8274
135	10221.2399
136	10116.4722
137	10631.2144
138	10146.3488
139	10350.7662
140	9851.2462
141	10093.0399
142	9895.4761
143	9852.3037
144	10157.133
145	10416.009
146	9585.1118
147	10058.9791
148	10029.0106
149	10124.1821
150	10093.9679
151	10288.4258
152	10459.1288
153	10361.4108
154	10240.5473
155	10503.3304
156	10534.962
157	10355.3584
158	9973.7671
159	9813.6638
160	10258.4424
161	9708.4288
162	9884.2429
163	9955.5052
164	10110.8206
165	9867.8065
166	9866.5234
167	9754.8096
168	9605.1537
169	9580.2155
170	9358.7502
171	9525.7096
172	9262.6995
173	9351.1916
174	9295.3032
175	9623.9842
176	9595.2652
177	9533.2614
178	9478.571
179	9641.1703
180	9865.5903
181	9751.1002
182	9401.5776
183	9736.0653
184	9729.6406
185	9513.8672
186	9962.7686
187	9845.7511
188	10018.7473
189	9795.4198
190	9420.735
191	9549.8422
192	9685.0062
193	9662.5644
194	9508.7712
195	9530.4208
196	9210.4174
197	9292.3259
198	9243.3139
199	9253.7671
200	4718.8103
