Position	Value
-200	4157.385
-199	4124.2292
-198	4363.7675
-197	4216.9075
-196	4640.5012
-195	4423.47
-194	4151.9355
-193	4691.8674
-192	4537.2164
-191	4497.0284
-190	4514.2695
-189	4807.6498
-188	4663.1864
-187	4822.545
-186	5238.3138
-185	4900.1812
-184	4672.9624
-183	4624.4521
-182	4879.7571
-181	5170.3203
-180	5228.3378
-179	4786.3079
-178	4603.5493
-177	5088.6146
-176	4582.3453
-175	4779.0432
-174	5054.4908
-173	4686.4541
-172	4805.699
-171	4876.4177
-170	4082.2065
-169	4440.2657
-168	4862.6218
-167	4415.3661
-166	4919.948
-165	5124.628
-164	4554.3989
-163	4855.82
-162	4892.7926
-161	4377.3362
-160	4668.3486
-159	5210.2946
-158	4428.5287
-157	4344.2814
-156	5321.3929
-155	5188.587
-154	4950.6685
-153	4866.7619
-152	4558.6021
-151	4522.6417
-150	4195.3964
-149	4270.339
-148	4571.7328
-147	5136.2861
-146	4401.3799
-145	3821.7783
-144	4769.4456
-143	4645.0785
-142	4465.4823
-141	4553.9983
-140	4215.8201
-139	4745.6219
-138	4956.6531
-137	4677.1565
-136	4569.5055
-135	5277.2908
-134	4764.8343
-133	4687.0018
-132	5061.0868
-131	4706.3181
-130	5234.9534
-129	5446.7829
-128	4275.4331
-127	4596.9725
-126	4946.1667
-125	4871.4482
-124	4784.2369
-123	4603.326
-122	4832.1045
-121	4609.7054
-120	4965.4992
-119	4779.9109
-118	4773.7054
-117	5065.092
-116	4920.69
-115	4728.9048
-114	4705.9282
-113	4429.3822
-112	4385.652
-111	4899.627
-110	4602.4439
-109	4566.6742
-108	5115.1367
-107	5004.2207
-106	4324.0481
-105	4580.8045
-104	4638.7419
-103	4433.7999
-102	5334.6901
-101	4922.1563
-100	4904.1799
-99	5179.5012
-98	4798.5286
-97	5002.2657
-96	5241.6565
-95	5058.6267
-94	4857.2365
-93	4990.4022
-92	4903.1982
-91	5203.4479
-90	5438.1478
-89	5128.3749
-88	4908.3127
-87	5196.0011
-86	4947.0647
-85	4545.6554
-84	5203.2566
-83	4822.7584
-82	4671.2674
-81	5008.9485
-80	4899.1432
-79	5007.6046
-78	5395.4011
-77	4985.5695
-76	5133.5712
-75	5240.1186
-74	4807.9513
-73	4679.0277
-72	5154.4065
-71	4797.4036
-70	4949.0808
-69	5629.6461
-68	5950.5783
-67	5582.0614
-66	6046.5922
-65	5296.9437
-64	5035.0949
-63	5854.4709
-62	5285.3979
-61	5287.1159
-60	5954.0573
-59	5370.3081
-58	5315.2271
-57	5761.9956
-56	5337.6997
-55	5401.214
-54	6063.7806
-53	5139.9424
-52	5151.7324
-51	6002.3935
-50	5427.7164
-49	5008.1242
-48	5872.0814
-47	5295.039
-46	5398.5601
-45	5830.0059
-44	5283.4411
-43	4846.5769
-42	5246.8877
-41	5406.1113
-40	5221.6008
-39	5670.029
-38	5647.9011
-37	5407.226
-36	5801.1267
-35	5220.4145
-34	5585.9231
-33	5855.1545
-32	5331.6691
-31	5341.2875
-30	6202.1476
-29	5469.7057
-28	5251.0887
-27	5575.6482
-26	5102.5682
-25	5387.2223
-24	5783.1328
-23	5130.412
-22	5640.3099
-21	5943.7832
-20	4858.6918
-19	5376.2891
-18	6472.8704
-17	6230.3073
-16	6368.7362
-15	6723.7173
-14	6359.4075
-13	7085.9124
-12	7392.8455
-11	7614.3856
-10	7951.9093
-9	8597.1666
-8	8672.3498
-7	9488.23
-6	10818.7472
-5	11042.7947
-4	11510.6239
-3	14596.1148
-2	14666.9655
-1	25279.0836
0	131843.9999
1	25279.0836
2	14666.9655
3	14596.1148
4	11510.6239
5	11042.7947
6	10818.7472
7	9488.23
8	8672.3498
9	8597.1666
10	7951.9093
11	7614.3856
12	7392.8455
13	7085.9124
14	6359.4075
15	6723.7173
16	6368.7362
17	6230.3073
18	6472.8704
19	5376.2891
20	4858.6918
21	5943.7832
22	5640.3099
23	5130.412
24	5783.1328
25	5387.2223
26	5102.5682
27	5575.6482
28	5251.0887
29	5469.7057
30	6202.1476
31	5341.2875
32	5331.6691
33	5855.1545
34	5585.9231
35	5220.4145
36	5801.1267
37	5407.226
38	5647.9011
39	5670.029
40	5221.6008
41	5406.1113
42	5246.8877
43	4846.5769
44	5283.4411
45	5830.0059
46	5398.5601
47	5295.039
48	5872.0814
49	5008.1242
50	5427.7164
51	6002.3935
52	5151.7324
53	5139.9424
54	6063.7806
55	5401.214
56	5337.6997
57	5761.9956
58	5315.2271
59	5370.3081
60	5954.0573
61	5287.1159
62	5285.3979
63	5854.4709
64	5035.0949
65	5296.9437
66	6046.5922
67	5582.0614
68	5950.5783
69	5629.6461
70	4949.0808
71	4797.4036
72	5154.4065
73	4679.0277
74	4807.9513
75	5240.1186
76	5133.5712
77	4985.5695
78	5395.4011
79	5007.6046
80	4899.1432
81	5008.9485
82	4671.2674
83	4822.7584
84	5203.2566
85	4545.6554
86	4947.0647
87	5196.0011
88	4908.3127
89	5128.3749
90	5438.1478
91	5203.4479
92	4903.1982
93	4990.4022
94	4857.2365
95	5058.6267
96	5241.6565
97	5002.2657
98	4798.5286
99	5179.5012
100	4904.1799
101	4922.1563
102	5334.6901
103	4433.7999
104	4638.7419
105	4580.8045
106	4324.0481
107	5004.2207
108	5115.1367
109	4566.6742
110	4602.4439
111	4899.627
112	4385.652
113	4429.3822
114	4705.9282
115	4728.9048
116	4920.69
117	5065.092
118	4773.7054
119	4779.9109
120	4965.4992
121	4609.7054
122	4832.1045
123	4603.326
124	4784.2369
125	4871.4482
126	4946.1667
127	4596.9725
128	4275.4331
129	5446.7829
130	5234.9534
131	4706.3181
132	5061.0868
133	4687.0018
134	4764.8343
135	5277.2908
136	4569.5055
137	4677.1565
138	4956.6531
139	4745.6219
140	4215.8201
141	4553.9983
142	4465.4823
143	4645.0785
144	4769.4456
145	3821.7783
146	4401.3799
147	5136.2861
148	4571.7328
149	4270.339
150	4195.3964
151	4522.6417
152	4558.6021
153	4866.7619
154	4950.6685
155	5188.587
156	5321.3929
157	4344.2814
158	4428.5287
159	5210.2946
160	4668.3486
161	4377.3362
162	4892.7926
163	4855.82
164	4554.3989
165	5124.628
166	4919.948
167	4415.3661
168	4862.6218
169	4440.2657
170	4082.2065
171	4876.4177
172	4805.699
173	4686.4541
174	5054.4908
175	4779.0432
176	4582.3453
177	5088.6146
178	4603.5493
179	4786.3079
180	5228.3378
181	5170.3203
182	4879.7571
183	4624.4521
184	4672.9624
185	4900.1812
186	5238.3138
187	4822.545
188	4663.1864
189	4807.6498
190	4514.2695
191	4497.0284
192	4537.2164
193	4691.8674
194	4151.9355
195	4423.47
196	4640.5012
197	4216.9075
198	4363.7675
199	4124.2292
200	4157.385
