Position	Value
-200	32510.5463
-199	64736.9092
-198	64652.4144
-197	65118.1757
-196	64774.7506
-195	65778.0281
-194	65911.7962
-193	65679.1367
-192	65984.5439
-191	66383.3763
-190	66270.6925
-189	66320.2917
-188	67210.8598
-187	65698.4498
-186	66026.2985
-185	65875.7636
-184	66925.7664
-183	67457.2881
-182	66376.4212
-181	67202.6706
-180	66704.2422
-179	66066.0549
-178	65941.4959
-177	67597.3347
-176	66212.5676
-175	66218.0868
-174	67454.0686
-173	67442.144
-172	66909.8362
-171	66991.3482
-170	66599.2688
-169	67635.0714
-168	67168.9261
-167	67210.265
-166	66738.5012
-165	67874.6632
-164	67340.4413
-163	67700.9869
-162	67466.2394
-161	66914.0691
-160	67611.2719
-159	68151.6108
-158	67874.6312
-157	67544.1916
-156	68924.6921
-155	68094.3653
-154	67642.6717
-153	67912.8126
-152	69005.309
-151	68028.7432
-150	68203.7183
-149	67828.4578
-148	67607.0339
-147	68455.5905
-146	68034.9648
-145	68896.5556
-144	68561.9484
-143	68145.9741
-142	68045.588
-141	66835.4569
-140	67019.053
-139	67635.0833
-138	67483.9132
-137	68033.2289
-136	68800.8933
-135	68835.1434
-134	67810.1883
-133	67551.5956
-132	69438.9429
-131	69439.3602
-130	70681.1959
-129	70060.3439
-128	69821.2123
-127	69890.9211
-126	70773.3732
-125	70335.7178
-124	70235.334
-123	70300.3628
-122	69997.5771
-121	69966.4141
-120	70466.0056
-119	69699.2902
-118	69738.2328
-117	69683.9317
-116	68840.8912
-115	69019.2182
-114	70092.524
-113	69141.9985
-112	68930.9036
-111	69704.4893
-110	70155.5038
-109	69624.8365
-108	70579.4913
-107	70460.0079
-106	69964.0868
-105	69497.4639
-104	69764.9925
-103	70230.436
-102	70770.8778
-101	70902.838
-100	71186.3958
-99	72111.0665
-98	72005.8099
-97	71531.729
-96	72691.3784
-95	73107.5213
-94	72409.1694
-93	73564.2055
-92	73043.6437
-91	72816.1109
-90	72514.9783
-89	72072.0236
-88	72326.4645
-87	72967.1342
-86	71585.2099
-85	70374.6053
-84	71583.4966
-83	70081.4742
-82	71012.5662
-81	71091.0895
-80	70905.8052
-79	71709.6891
-78	71263.5995
-77	72268.4757
-76	72330.0229
-75	73208.4905
-74	71320.1095
-73	71642.637
-72	72872.1129
-71	72790.014
-70	74335.2604
-69	74618.0076
-68	74910.0343
-67	74943.7654
-66	77284.0622
-65	76942.19
-64	76322.1211
-63	78173.4113
-62	78485.7211
-61	78001.3755
-60	77136.5535
-59	77684.8317
-58	78180.3434
-57	76343.9569
-56	75611.1551
-55	75400.5084
-54	74323.5393
-53	74660.3458
-52	75236.7734
-51	74820.9625
-50	74358.5882
-49	74025.1118
-48	75283.8535
-47	73561.7107
-46	73875.064
-45	74019.3588
-44	73503.9354
-43	73876.1801
-42	75272.3798
-41	75162.0741
-40	75038.434
-39	75055.4841
-38	75482.2833
-37	76365.7216
-36	77800.0193
-35	78549.2377
-34	79663.645
-33	82040.5332
-32	81371.9223
-31	80829.5191
-30	87069.2201
-29	83675.2867
-28	80216.8261
-27	75876.7794
-26	74818.6352
-25	74161.843
-24	74730.5404
-23	75896.846
-22	78289.2527
-21	81574.5966
-20	83160.9934
-19	84681.7746
-18	85984.5089
-17	87582.0232
-16	87234.3481
-15	88750.2962
-14	90081.7082
-13	93148.2661
-12	97351.69
-11	100185.6823
-10	100415.3264
-9	105393.9448
-8	106516.7686
-7	112419.494
-6	115881.7983
-5	124521.1132
-4	134803.3452
-3	147167.2863
-2	146931.3538
-1	152646.7961
0	639632.8721
1	152646.7961
2	146931.3538
3	147167.2863
4	134803.3452
5	124521.1132
6	115881.7983
7	112419.494
8	106516.7686
9	105393.9448
10	100415.3264
11	100185.6823
12	97351.69
13	93148.2661
14	90081.7082
15	88750.2962
16	87234.3481
17	87582.0232
18	85984.5089
19	84681.7746
20	83160.9934
21	81574.5966
22	78289.2527
23	75896.846
24	74730.5404
25	74161.843
26	74818.6352
27	75876.7794
28	80216.8261
29	83675.2867
30	87069.2201
31	80829.5191
32	81371.9223
33	82040.5332
34	79663.645
35	78549.2377
36	77800.0193
37	76365.7216
38	75482.2833
39	75055.4841
40	75038.434
41	75162.0741
42	75272.3798
43	73876.1801
44	73503.9354
45	74019.3588
46	73875.064
47	73561.7107
48	75283.8535
49	74025.1118
50	74358.5882
51	74820.9625
52	75236.7734
53	74660.3458
54	74323.5393
55	75400.5084
56	75611.1551
57	76343.9569
58	78180.3434
59	77684.8317
60	77136.5535
61	78001.3755
62	78485.7211
63	78173.4113
64	76322.1211
65	76942.19
66	77284.0622
67	74943.7654
68	74910.0343
69	74618.0076
70	74335.2604
71	72790.014
72	72872.1129
73	71642.637
74	71320.1095
75	73208.4905
76	72330.0229
77	72268.4757
78	71263.5995
79	71709.6891
80	70905.8052
81	71091.0895
82	71012.5662
83	70081.4742
84	71583.4966
85	70374.6053
86	71585.2099
87	72967.1342
88	72326.4645
89	72072.0236
90	72514.9783
91	72816.1109
92	73043.6437
93	73564.2055
94	72409.1694
95	73107.5213
96	72691.3784
97	71531.729
98	72005.8099
99	72111.0665
100	71186.3958
101	70902.838
102	70770.8778
103	70230.436
104	69764.9925
105	69497.4639
106	69964.0868
107	70460.0079
108	70579.4913
109	69624.8365
110	70155.5038
111	69704.4893
112	68930.9036
113	69141.9985
114	70092.524
115	69019.2182
116	68840.8912
117	69683.9317
118	69738.2328
119	69699.2902
120	70466.0056
121	69966.4141
122	69997.5771
123	70300.3628
124	70235.334
125	70335.7178
126	70773.3732
127	69890.9211
128	69821.2123
129	70060.3439
130	70681.1959
131	69439.3602
132	69438.9429
133	67551.5956
134	67810.1883
135	68835.1434
136	68800.8933
137	68033.2289
138	67483.9132
139	67635.0833
140	67019.053
141	66835.4569
142	68045.588
143	68145.9741
144	68561.9484
145	68896.5556
146	68034.9648
147	68455.5905
148	67607.0339
149	67828.4578
150	68203.7183
151	68028.7432
152	69005.309
153	67912.8126
154	67642.6717
155	68094.3653
156	68924.6921
157	67544.1916
158	67874.6312
159	68151.6108
160	67611.2719
161	66914.0691
162	67466.2394
163	67700.9869
164	67340.4413
165	67874.6632
166	66738.5012
167	67210.265
168	67168.9261
169	67635.0714
170	66599.2688
171	66991.3482
172	66909.8362
173	67442.144
174	67454.0686
175	66218.0868
176	66212.5676
177	67597.3347
178	65941.4959
179	66066.0549
180	66704.2422
181	67202.6706
182	66376.4212
183	67457.2881
184	66925.7664
185	65875.7636
186	66026.2985
187	65698.4498
188	67210.8598
189	66320.2917
190	66270.6925
191	66383.3763
192	65984.5439
193	65679.1367
194	65911.7962
195	65778.0281
196	64774.7506
197	65118.1757
198	64652.4144
199	64736.9093
200	32510.5463
