Position	Value
-200	16815.2609
-199	34620.1762
-198	34498.6242
-197	34154.0006
-196	34433.6027
-195	34545.5055
-194	33679.3112
-193	34473.2114
-192	34381.105
-191	34700.8604
-190	34441.2097
-189	35141.4937
-188	35664.1765
-187	35784.4806
-186	35737.7096
-185	35597.3216
-184	35069.0981
-183	35040.6836
-182	35285.7048
-181	35221.9351
-180	35612.1132
-179	35171.5977
-178	35464.12
-177	35882.1063
-176	35365.107
-175	35538.2075
-174	35716.5183
-173	35123.9174
-172	34880.9663
-171	35277.6197
-170	34732.7908
-169	35737.9432
-168	35701.2816
-167	36111.2556
-166	35884.1098
-165	36459.4614
-164	36133.0849
-163	36186.2694
-162	36337.1308
-161	35761.5425
-160	36454.0189
-159	36352.8712
-158	36666.9799
-157	36352.1625
-156	37345.0891
-155	36593.5288
-154	36635.7962
-153	36813.7107
-152	36856.0093
-151	36800.1001
-150	36177.5903
-149	36309.1481
-148	35835.6397
-147	36168.9042
-146	35533.417
-145	36014.982
-144	36894.4171
-143	36561.9976
-142	35969.6494
-141	36281.1996
-140	35977.1001
-139	36098.045
-138	36432.7007
-137	36938.7529
-136	36666.1494
-135	37545.9341
-134	37670.9392
-133	37460.3707
-132	38470.7175
-131	38081.2819
-130	38815.4093
-129	38576.5875
-128	38469.3855
-127	38371.0717
-126	39188.0225
-125	39086.0614
-124	39225.3361
-123	40117.7183
-122	39428.3441
-121	39997.0119
-120	39365.5883
-119	39488.1383
-118	39356.0263
-117	38955.0965
-116	37927.0724
-115	38076.4253
-114	38341.2379
-113	38336.243
-112	38189.4959
-111	38581.9066
-110	38371.2396
-109	37604.1565
-108	38492.042
-107	38012.785
-106	37648.1007
-105	38399.8149
-104	38590.1057
-103	38211.5777
-102	39371.9003
-101	39661.8387
-100	40242.1101
-99	41443.2754
-98	41006.1518
-97	41205.9594
-96	41463.3673
-95	41389.3279
-94	41304.364
-93	41634.0335
-92	41649.4843
-91	42372.62
-90	42991.5581
-89	41930.6465
-88	42178.9236
-87	41525.429
-86	40624.479
-85	39999.848
-84	40262.9947
-83	39217.2419
-82	39346.7902
-81	39680.886
-80	39197.1197
-79	39904.6031
-78	40604.7503
-77	40437.6085
-76	40561.4122
-75	40737.1294
-74	40480.9009
-73	40221.2313
-72	41829.5951
-71	41317.7857
-70	42117.9923
-69	43426.5114
-68	43952.5269
-67	44533.4632
-66	45889.2281
-65	46176.8857
-64	47065.0512
-63	47557.9828
-62	47053.2846
-61	46956.8379
-60	46726.4703
-59	47176.2367
-58	46221.5759
-57	45686.8487
-56	44973.2535
-55	43895.1167
-54	42826.3915
-53	42315.9151
-52	41801.3389
-51	41654.8713
-50	41680.7272
-49	41232.6816
-48	42312.8511
-47	41833.6277
-46	41269.5002
-45	42412.0289
-44	42255.5696
-43	42461.3364
-42	43871.1755
-41	42906.8093
-40	43633.0943
-39	45099.5286
-38	46199.6666
-37	46864.3431
-36	47943.575
-35	50066.3457
-34	52029.3261
-33	53892.4061
-32	53867.1444
-31	54771.1641
-30	55826.8774
-29	54867.978
-28	54030.7389
-27	51974.3744
-26	46352.579
-25	42949.7902
-24	42877.0125
-23	41209.8728
-22	40300.8926
-21	42590.7606
-20	41374.2422
-19	41827.4411
-18	43812.1334
-17	44062.5586
-16	45143.9256
-15	45935.2786
-14	46453.3794
-13	48801.9236
-12	53116.2922
-11	56386.2991
-10	58155.9484
-9	61564.1987
-8	64765.4467
-7	71830.0546
-6	79325.1513
-5	88413.4327
-4	101358.3743
-3	119792.3255
-2	134271.0527
-1	148047.3328
0	1319593.4822
1	148047.3328
2	134271.0527
3	119792.3255
4	101358.3743
5	88413.4327
6	79325.1513
7	71830.0546
8	64765.4467
9	61564.1987
10	58155.9484
11	56386.2991
12	53116.2922
13	48801.9236
14	46453.3794
15	45935.2786
16	45143.9256
17	44062.5586
18	43812.1334
19	41827.4411
20	41374.2422
21	42590.7606
22	40300.8926
23	41209.8728
24	42877.0125
25	42949.7902
26	46352.579
27	51974.3744
28	54030.7389
29	54867.978
30	55826.8774
31	54771.1641
32	53867.1444
33	53892.4061
34	52029.3261
35	50066.3457
36	47943.575
37	46864.3431
38	46199.6666
39	45099.5286
40	43633.0943
41	42906.8093
42	43871.1755
43	42461.3364
44	42255.5696
45	42412.0289
46	41269.5002
47	41833.6277
48	42312.8511
49	41232.6816
50	41680.7272
51	41654.8713
52	41801.3389
53	42315.9151
54	42826.3915
55	43895.1167
56	44973.2535
57	45686.8487
58	46221.5759
59	47176.2367
60	46726.4703
61	46956.8379
62	47053.2846
63	47557.9828
64	47065.0512
65	46176.8857
66	45889.2281
67	44533.4632
68	43952.5269
69	43426.5114
70	42117.9923
71	41317.7857
72	41829.5951
73	40221.2313
74	40480.9009
75	40737.1294
76	40561.4122
77	40437.6085
78	40604.7503
79	39904.6031
80	39197.1197
81	39680.886
82	39346.7902
83	39217.2419
84	40262.9947
85	39999.848
86	40624.479
87	41525.429
88	42178.9236
89	41930.6465
90	42991.5581
91	42372.62
92	41649.4843
93	41634.0335
94	41304.364
95	41389.3279
96	41463.3673
97	41205.9594
98	41006.1518
99	41443.2754
100	40242.1101
101	39661.8387
102	39371.9003
103	38211.5777
104	38590.1057
105	38399.8149
106	37648.1007
107	38012.785
108	38492.042
109	37604.1565
110	38371.2396
111	38581.9066
112	38189.4959
113	38336.243
114	38341.2379
115	38076.4253
116	37927.0724
117	38955.0965
118	39356.0263
119	39488.1383
120	39365.5883
121	39997.0119
122	39428.3441
123	40117.7183
124	39225.3361
125	39086.0614
126	39188.0225
127	38371.0717
128	38469.3855
129	38576.5875
130	38815.4093
131	38081.2819
132	38470.7175
133	37460.3707
134	37670.9392
135	37545.9341
136	36666.1494
137	36938.7529
138	36432.7007
139	36098.045
140	35977.1001
141	36281.1996
142	35969.6494
143	36561.9976
144	36894.4171
145	36014.982
146	35533.417
147	36168.9042
148	35835.6397
149	36309.1481
150	36177.5903
151	36800.1001
152	36856.0093
153	36813.7107
154	36635.7962
155	36593.5288
156	37345.0891
157	36352.1625
158	36666.9799
159	36352.8712
160	36454.0189
161	35761.5425
162	36337.1308
163	36186.2694
164	36133.0849
165	36459.4614
166	35884.1098
167	36111.2556
168	35701.2816
169	35737.9432
170	34732.7908
171	35277.6197
172	34880.9663
173	35123.9174
174	35716.5183
175	35538.2075
176	35365.107
177	35882.1063
178	35464.12
179	35171.5977
180	35612.1132
181	35221.9351
182	35285.7048
183	35040.6836
184	35069.0981
185	35597.3216
186	35737.7096
187	35784.4806
188	35664.1765
189	35141.4937
190	34441.2097
191	34700.8604
192	34381.105
193	34473.2114
194	33679.3112
195	34545.5055
196	34433.6027
197	34154.0006
198	34498.6242
199	34620.1762
200	16815.2609
