Position	Value
-200	173678.795
-199	349675.0026
-198	350094.3718
-197	348829.1626
-196	347498.0276
-195	350263.4543
-194	350162.6543
-193	349092.4502
-192	350095.0153
-191	350333.2944
-190	351076.6615
-189	351590.1847
-188	352382.0434
-187	350586.147
-186	352139.0185
-185	351831.6718
-184	353153.1812
-183	353543.957
-182	350702.3492
-181	353133.9556
-180	352037.4829
-179	352476.5178
-178	352164.9661
-177	355141.0081
-176	352163.9896
-175	350207.0471
-174	353927.3911
-173	352329.1759
-172	351476.1754
-171	354943.1321
-170	352560.4275
-169	355344.5746
-168	357735.1202
-167	356134.8036
-166	356828.6062
-165	359569.2321
-164	358501.4235
-163	360140.5485
-162	359691.7731
-161	359831.1093
-160	360583.8729
-159	362516.2065
-158	360625.3549
-157	359636.3787
-156	363324.1339
-155	361328.7599
-154	362014.1888
-153	362303.4645
-152	362454.6497
-151	361251.5918
-150	361445.893
-149	361610.2783
-148	361258.1217
-147	364073.3827
-146	359837.3035
-145	364554.4588
-144	363430.6433
-143	363068.6257
-142	362976.5307
-141	361715.5595
-140	365995.1766
-139	364823.9418
-138	364952.6308
-137	365871.263
-136	368128.1981
-135	368905.6541
-134	366974.5194
-133	367855.4231
-132	370963.5684
-131	369534.8398
-130	374358.9066
-129	372965.0912
-128	371580.7242
-127	370786.5463
-126	374784.6141
-125	372446.8092
-124	371396.0946
-123	373171.603
-122	371786.9968
-121	369004.4328
-120	373574.8732
-119	370075.6352
-118	371410.1111
-117	371214.9253
-116	367393.3963
-115	368839.0592
-114	370930.5349
-113	369050.8878
-112	368102.0148
-111	371670.9622
-110	370795.1059
-109	370383.7164
-108	374387.8913
-107	374496.4744
-106	373422.1862
-105	374675.4717
-104	372109.5043
-103	375938.242
-102	380054.835
-101	378164.1518
-100	380623.4339
-99	383397.7538
-98	382524.8773
-97	381539.7397
-96	385557.0017
-95	381001.8882
-94	386635.5829
-93	384816.9613
-92	382666.7298
-91	382856.4804
-90	383030.4269
-89	379867.92
-88	381930.5564
-87	381412.5329
-86	381241.8641
-85	378170.3687
-84	381799.471
-83	376851.7953
-82	380088.4414
-81	382482.8447
-80	379494.2926
-79	381167.6854
-78	380809.7041
-77	383998.9183
-76	383729.0395
-75	386992.586
-74	383220.4061
-73	385146.0254
-72	387066.8315
-71	388619.1115
-70	393253.9751
-69	395724.4146
-68	396172.5367
-67	400612.6286
-66	404854.1616
-65	404994.572
-64	404001.4568
-63	408643.8895
-62	407214.6265
-61	403074.7993
-60	404507.732
-59	404364.7316
-58	404817.4577
-57	400843.4207
-56	398418.6772
-55	399216.0425
-54	399008.4452
-53	398922.6669
-52	400395.9632
-51	400279.2507
-50	396944.8263
-49	397807.9048
-48	400540.9697
-47	395393.7803
-46	395045.1329
-45	398223.6846
-44	396934.9244
-43	396397.9761
-42	402903.1518
-41	398884.2677
-40	401324.554
-39	404055.3887
-38	408207.7542
-37	410792.7678
-36	417777.6386
-35	422668.4185
-34	426944.9092
-33	434337.0873
-32	437933.7207
-31	438278.9113
-30	436613.6531
-29	419432.4582
-28	406096.6131
-27	405060.0564
-26	411981.3139
-25	413286.5055
-24	417682.2338
-23	425368.2931
-22	434096.2108
-21	451497.1024
-20	460386.2833
-19	470422.3334
-18	478462.3323
-17	487021.4453
-16	487580.5768
-15	499941.8419
-14	509354.6257
-13	524631.5182
-12	543558.3896
-11	554182.1522
-10	564455.0366
-9	587386.6145
-8	602700.5881
-7	632490.5867
-6	650352.3882
-5	693969.6636
-4	746457.1585
-3	810615.1425
-2	801925.6181
-1	835057.4006
0	2507833.5502
1	835057.4007
2	801925.6181
3	810615.1425
4	746457.1585
5	693969.6636
6	650352.3882
7	632490.5867
8	602700.5881
9	587386.6145
10	564455.0366
11	554182.1522
12	543558.3896
13	524631.5182
14	509354.6257
15	499941.8419
16	487580.5768
17	487021.4453
18	478462.3323
19	470422.3334
20	460386.2833
21	451497.1024
22	434096.2108
23	425368.2931
24	417682.2338
25	413286.5055
26	411981.3139
27	405060.0564
28	406096.6131
29	419432.4582
30	436613.6531
31	438278.9113
32	437933.7207
33	434337.0873
34	426944.9092
35	422668.4185
36	417777.6386
37	410792.7678
38	408207.7542
39	404055.3887
40	401324.554
41	398884.2677
42	402903.1518
43	396397.976
44	396934.9244
45	398223.6846
46	395045.1329
47	395393.7803
48	400540.9697
49	397807.9048
50	396944.8263
51	400279.2507
52	400395.9632
53	398922.6669
54	399008.4452
55	399216.0425
56	398418.6772
57	400843.4207
58	404817.4577
59	404364.7316
60	404507.732
61	403074.7993
62	407214.6265
63	408643.8895
64	404001.4568
65	404994.572
66	404854.1616
67	400612.6286
68	396172.5367
69	395724.4146
70	393253.9751
71	388619.1115
72	387066.8315
73	385146.0254
74	383220.4061
75	386992.586
76	383729.0395
77	383998.9183
78	380809.7041
79	381167.6854
80	379494.2926
81	382482.8447
82	380088.4414
83	376851.7953
84	381799.471
85	378170.3687
86	381241.8641
87	381412.5329
88	381930.5564
89	379867.92
90	383030.4269
91	382856.4804
92	382666.7298
93	384816.9613
94	386635.5829
95	381001.8882
96	385557.0017
97	381539.7397
98	382524.8773
99	383397.7538
100	380623.4339
101	378164.1518
102	380054.835
103	375938.242
104	372109.5043
105	374675.4717
106	373422.1862
107	374496.4744
108	374387.8913
109	370383.7164
110	370795.1059
111	371670.9622
112	368102.0148
113	369050.8878
114	370930.5349
115	368839.0592
116	367393.3963
117	371214.9253
118	371410.1111
119	370075.6352
120	373574.8732
121	369004.4328
122	371786.9968
123	373171.603
124	371396.0946
125	372446.8092
126	374784.6141
127	370786.5463
128	371580.7242
129	372965.0912
130	374358.9066
131	369534.8398
132	370963.5684
133	367855.4231
134	366974.5194
135	368905.6541
136	368128.1981
137	365871.263
138	364952.6308
139	364823.9418
140	365995.1766
141	361715.5595
142	362976.5307
143	363068.6257
144	363430.6433
145	364554.4588
146	359837.3035
147	364073.3827
148	361258.1217
149	361610.2783
150	361445.893
151	361251.5918
152	362454.6497
153	362303.4645
154	362014.1888
155	361328.7599
156	363324.1339
157	359636.3787
158	360625.3549
159	362516.2065
160	360583.8729
161	359831.1093
162	359691.7731
163	360140.5485
164	358501.4235
165	359569.2321
166	356828.6062
167	356134.8036
168	357735.1202
169	355344.5746
170	352560.4275
171	354943.1321
172	351476.1754
173	352329.1759
174	353927.3911
175	350207.0471
176	352163.9896
177	355141.0081
178	352164.9661
179	352476.5178
180	352037.4829
181	353133.9556
182	350702.3492
183	353543.957
184	353153.1812
185	351831.6718
186	352139.0185
187	350586.147
188	352382.0434
189	351590.1847
190	351076.6615
191	350333.2944
192	350095.0153
193	349092.4502
194	350162.6543
195	350263.4543
196	347498.0276
197	348829.1626
198	350094.3718
199	349675.0026
200	173678.795
