Position	Value
-200	158.4056
-199	84.8219
-198	63.3329
-197	92.2258
-196	90.7791
-195	92.6637
-194	105.1603
-193	110.1491
-192	92.0379
-191	88.1039
-190	99.4666
-189	84.7819
-188	89.7063
-187	135.6831
-186	105.5974
-185	102.4594
-184	101.4711
-183	88.8727
-182	77.2753
-181	120.2151
-180	128.7349
-179	88.2438
-178	77.8649
-177	103.2975
-176	114.0244
-175	64.3012
-174	107.0627
-173	104.124
-172	109.8199
-171	102.6728
-170	101.2165
-169	138.8772
-168	108.5782
-167	134.1935
-166	104.7281
-165	121.3343
-164	92.3575
-163	104.7994
-162	87.7872
-161	113.7715
-160	116.9736
-159	93.9951
-158	105.6064
-157	105.7593
-156	141.7149
-155	107.8315
-154	125.6818
-153	140.8716
-152	163.5032
-151	145.3749
-150	96.597
-149	150.2951
-148	108.7263
-147	104.6602
-146	105.7815
-145	122.693
-144	142.3132
-143	86.5169
-142	120.274
-141	137.6267
-140	131.1917
-139	112.4197
-138	143.8262
-137	130.742
-136	121.8715
-135	135.8324
-134	138.09
-133	119.5237
-132	150.245
-131	128.1505
-130	142.8057
-129	119.7338
-128	140.2294
-127	139.5119
-126	153.9397
-125	121.5793
-124	144.3042
-123	192.457
-122	205.6249
-121	153.0675
-120	117.6647
-119	161.547
-118	131.2989
-117	155.2258
-116	120.326
-115	142.9651
-114	123.3636
-113	140.0714
-112	130.7522
-111	116.3246
-110	179.566
-109	140.245
-108	135.6669
-107	137.8284
-106	151.2902
-105	182.3714
-104	160.0627
-103	141.3084
-102	150.9402
-101	155.2804
-100	160.8232
-99	205.9547
-98	183.692
-97	182.5422
-96	152.6158
-95	198.2994
-94	242.0395
-93	200.0155
-92	174.8084
-91	164.4239
-90	209.9651
-89	177.6584
-88	158.5544
-87	172.8151
-86	143.6956
-85	136.0093
-84	117.0088
-83	117.7668
-82	125.4096
-81	137.9025
-80	115.2471
-79	174.4332
-78	155.7923
-77	144.7251
-76	138.1622
-75	150.7023
-74	151.3029
-73	169.6075
-72	165.9838
-71	205.9053
-70	240.6109
-69	203.4774
-68	210.8533
-67	266.3482
-66	280.8022
-65	252.4723
-64	274.7806
-63	294.8825
-62	270.2894
-61	245.8862
-60	207.6055
-59	299.0733
-58	218.0031
-57	195.0985
-56	217.8028
-55	191.7322
-54	157.4945
-53	180.6761
-52	196.9939
-51	153.7652
-50	125.3439
-49	160.5335
-48	183.031
-47	148.0162
-46	109.6096
-45	187.6348
-44	153.9936
-43	157.9994
-42	189.6925
-41	202.1101
-40	204.02
-39	239.2637
-38	270.622
-37	263.2835
-36	333.6861
-35	329.0886
-34	452.9946
-33	348.5987
-32	416.3586
-31	405.7755
-30	406.6077
-29	403.0376
-28	390.4471
-27	278.1599
-26	188.9218
-25	188.7435
-24	162.1981
-23	156.8971
-22	168.3692
-21	173.1806
-20	145.6146
-19	157.5873
-18	187.1926
-17	155.3502
-16	150.383
-15	188.291
-14	169.7689
-13	176.0935
-12	237.6397
-11	202.9443
-10	243.3881
-9	257.4461
-8	300.5551
-7	339.4713
-6	268.9689
-5	345.9768
-4	449.2193
-3	480.0055
-2	470.1204
-1	414.4748
0	8557.5405
1	414.4748
2	470.1204
3	480.0055
4	449.2193
5	345.9768
6	268.9689
7	339.4713
8	300.5551
9	257.4461
10	243.3881
11	202.9443
12	237.6397
13	176.0935
14	169.7689
15	188.291
16	150.383
17	155.3502
18	187.1926
19	157.5873
20	145.6146
21	173.1806
22	168.3692
23	156.8971
24	162.1981
25	188.7435
26	188.9218
27	278.1599
28	390.4471
29	403.0376
30	406.6077
31	405.7755
32	416.3586
33	348.5987
34	452.9946
35	329.0886
36	333.6861
37	263.2835
38	270.622
39	239.2637
40	204.02
41	202.1101
42	189.6925
43	157.9994
44	153.9936
45	187.6348
46	109.6096
47	148.0162
48	183.031
49	160.5335
50	125.3439
51	153.7652
52	196.9939
53	180.6761
54	157.4945
55	191.7322
56	217.8028
57	195.0985
58	218.0031
59	299.0733
60	207.6055
61	245.8862
62	270.2894
63	294.8825
64	274.7806
65	252.4723
66	280.8022
67	266.3482
68	210.8533
69	203.4774
70	240.6109
71	205.9053
72	165.9838
73	169.6075
74	151.3029
75	150.7023
76	138.1622
77	144.7251
78	155.7923
79	174.4332
80	115.2471
81	137.9025
82	125.4096
83	117.7668
84	117.0088
85	136.0093
86	143.6956
87	172.8151
88	158.5544
89	177.6584
90	209.9651
91	164.4239
92	174.8084
93	200.0155
94	242.0395
95	198.2994
96	152.6158
97	182.5422
98	183.692
99	205.9547
100	160.8232
101	155.2804
102	150.9402
103	141.3084
104	160.0627
105	182.3714
106	151.2902
107	137.8284
108	135.6669
109	140.245
110	179.566
111	116.3246
112	130.7522
113	140.0714
114	123.3636
115	142.9651
116	120.326
117	155.2258
118	131.2989
119	161.547
120	117.6647
121	153.0675
122	205.6249
123	192.457
124	144.3042
125	121.5793
126	153.9397
127	139.5119
128	140.2294
129	119.7338
130	142.8057
131	128.1505
132	150.245
133	119.5237
134	138.09
135	135.8324
136	121.8715
137	130.742
138	143.8262
139	112.4197
140	131.1917
141	137.6267
142	120.274
143	86.5169
144	142.3132
145	122.693
146	105.7815
147	104.6602
148	108.7263
149	150.2951
150	96.597
151	145.3749
152	163.5032
153	140.8716
154	125.6818
155	107.8315
156	141.7149
157	105.7593
158	105.6064
159	93.9951
160	116.9736
161	113.7715
162	87.7872
163	104.7994
164	92.3575
165	121.3343
166	104.7281
167	134.1935
168	108.5782
169	138.8772
170	101.2165
171	102.6728
172	109.8199
173	104.124
174	107.0627
175	64.3012
176	114.0244
177	103.2975
178	77.8649
179	88.2438
180	128.7349
181	120.2151
182	77.2753
183	88.8727
184	101.4711
185	102.4594
186	105.5974
187	135.6831
188	89.7063
189	84.7819
190	99.4666
191	88.1039
192	92.0379
193	110.1491
194	105.1603
195	92.6637
196	90.7791
197	92.2258
198	63.3329
199	84.8219
200	158.4056
