Position	Value
-200	142059.7317
-199	69520.5631
-198	70501.1403
-197	70924.9372
-196	70283.7043
-195	71094.5214
-194	70835.1371
-193	71760.0731
-192	70906.2271
-191	70669.7297
-190	71379.712
-189	70931.1402
-188	72630.4602
-187	72270.1068
-186	71539.9311
-185	72360.7421
-184	72295.5771
-183	72173.7059
-182	69876.2709
-181	73233.455
-180	71494.57
-179	69669.8847
-178	72303.1812
-177	72792.7257
-176	70654.6522
-175	71315.0812
-174	72629.5164
-173	71644.3786
-172	72529.0426
-171	72146.5256
-170	71075.846
-169	74632.8514
-168	72919.6734
-167	71713.9939
-166	73416.3792
-165	73792.3651
-164	72005.4439
-163	73499.8639
-162	74225.7519
-161	72776.4964
-160	73539.5949
-159	74869.4242
-158	73903.1042
-157	72773.3981
-156	75044.9428
-155	73273.0179
-154	74181.4779
-153	73970.8538
-152	74788.2652
-151	73735.1767
-150	73873.1111
-149	73883.3841
-148	73524.7386
-147	74133.0315
-146	72740.0251
-145	73752.4512
-144	74341.4158
-143	72802.417
-142	74895.4614
-141	72796.2443
-140	74116.867
-139	74968.234
-138	74754.025
-137	74667.1765
-136	75870.1692
-135	75519.9698
-134	74767.8919
-133	74294.255
-132	76495.2423
-131	76089.5219
-130	79177.2627
-129	78421.4393
-128	77307.7437
-127	77943.5095
-126	78111.2246
-125	77144.889
-124	77096.922
-123	77448.272
-122	77162.0005
-121	76552.4193
-120	77358.9696
-119	75941.0006
-118	76350.7781
-117	76165.4609
-116	74790.3123
-115	74956.0604
-114	76351.6425
-113	78000.2931
-112	74622.3192
-111	76471.0762
-110	77203.0922
-109	75862.9206
-108	77308.4939
-107	77135.9677
-106	76598.5149
-105	78176.2081
-104	76634.091
-103	76724.258
-102	79252.8518
-101	78549.2399
-100	79136.2891
-99	79704.246
-98	81796.9213
-97	80840.5161
-96	81523.309
-95	81545.8567
-94	82796.8791
-93	81806.3382
-92	80835.1079
-91	81609.7823
-90	80478.4007
-89	79778.634
-88	79573.8903
-87	78975.5104
-86	78868.134
-85	76858.293
-84	79208.7708
-83	76542.4178
-82	76715.2333
-81	79160.8144
-80	76777.6577
-79	78047.7634
-78	78286.4058
-77	79663.1339
-76	79352.2325
-75	81276.2344
-74	80825.559
-73	80271.0639
-72	80887.8789
-71	81048.1434
-70	84232.3862
-69	85911.1845
-68	84975.0886
-67	86703.2255
-66	88498.8053
-65	88500.7708
-64	88555.2485
-63	90243.4692
-62	89537.3832
-61	89641.0515
-60	88282.3355
-59	86994.7635
-58	88299.233
-57	85289.1196
-56	83501.722
-55	84240.2089
-54	82673.783
-53	83220.7595
-52	83773.7968
-51	82474.7008
-50	81211.3132
-49	81064.3562
-48	83926.0773
-47	82122.0409
-46	81586.4457
-45	82401.6701
-44	81388.4814
-43	83735.9591
-42	85652.3358
-41	84312.0092
-40	85183.3655
-39	86186.6119
-38	88837.3278
-37	89794.9685
-36	93423.285
-35	93726.1733
-34	96271.9034
-33	98792.3665
-32	99815.1844
-31	101891.3328
-30	103887.8911
-29	98336.8672
-28	93382.109
-27	88110.5099
-26	86938.5364
-25	87215.3267
-24	87356.1767
-23	88919.479
-22	88410.3858
-21	92454.2949
-20	94059.2167
-19	94581.626
-18	97413.0666
-17	97523.8307
-16	96174.7053
-15	99450.3072
-14	101021.6048
-13	104636.6171
-12	107992.0222
-11	112378.0612
-10	113383.5432
-9	119408.0513
-8	123972.7178
-7	126918.0357
-6	131615.7491
-5	140997.9799
-4	150317.7086
-3	162360.702
-2	138227.9412
-1	135042.38
0	800324.5728
1	135042.38
2	138227.9412
3	162360.702
4	150317.7086
5	140997.9799
6	131615.7491
7	126918.0357
8	123972.7178
9	119408.0513
10	113383.5432
11	112378.0612
12	107992.0222
13	104636.6171
14	101021.6048
15	99450.3072
16	96174.7053
17	97523.8307
18	97413.0666
19	94581.626
20	94059.2167
21	92454.2949
22	88410.3858
23	88919.479
24	87356.1767
25	87215.3267
26	86938.5364
27	88110.5099
28	93382.109
29	98336.8672
30	103887.8911
31	101891.3328
32	99815.1844
33	98792.3665
34	96271.9034
35	93726.1733
36	93423.285
37	89794.9685
38	88837.3278
39	86186.6119
40	85183.3655
41	84312.0092
42	85652.3358
43	83735.9591
44	81388.4814
45	82401.6701
46	81586.4457
47	82122.0409
48	83926.0773
49	81064.3562
50	81211.3132
51	82474.7008
52	83773.7968
53	83220.7595
54	82673.783
55	84240.2089
56	83501.722
57	85289.1196
58	88299.233
59	86994.7635
60	88282.3355
61	89641.0515
62	89537.3832
63	90243.4692
64	88555.2485
65	88500.7708
66	88498.8053
67	86703.2255
68	84975.0886
69	85911.1845
70	84232.3862
71	81048.1434
72	80887.8789
73	80271.0639
74	80825.559
75	81276.2344
76	79352.2325
77	79663.1339
78	78286.4058
79	78047.7634
80	76777.6577
81	79160.8144
82	76715.2333
83	76542.4178
84	79208.7708
85	76858.293
86	78868.134
87	78975.5104
88	79573.8903
89	79778.634
90	80478.4007
91	81609.7823
92	80835.1079
93	81806.3382
94	82796.8791
95	81545.8567
96	81523.309
97	80840.5161
98	81796.9213
99	79704.246
100	79136.2891
101	78549.2399
102	79252.8518
103	76724.258
104	76634.091
105	78176.2081
106	76598.5149
107	77135.9677
108	77308.4939
109	75862.9206
110	77203.0922
111	76471.0762
112	74622.3192
113	78000.2931
114	76351.6425
115	74956.0604
116	74790.3123
117	76165.4609
118	76350.7781
119	75941.0006
120	77358.9696
121	76552.4193
122	77162.0005
123	77448.272
124	77096.922
125	77144.889
126	78111.2246
127	77943.5095
128	77307.7437
129	78421.4393
130	79177.2627
131	76089.5219
132	76495.2423
133	74294.255
134	74767.8919
135	75519.9698
136	75870.1692
137	74667.1765
138	74754.025
139	74968.234
140	74116.867
141	72796.2443
142	74895.4614
143	72802.417
144	74341.4158
145	73752.4512
146	72740.0251
147	74133.0315
148	73524.7386
149	73883.3841
150	73873.1111
151	73735.1767
152	74788.2652
153	73970.8538
154	74181.4779
155	73273.0179
156	75044.9428
157	72773.3981
158	73903.1042
159	74869.4242
160	73539.5949
161	72776.4964
162	74225.7519
163	73499.8639
164	72005.4439
165	73792.3651
166	73416.3792
167	71713.9939
168	72919.6734
169	74632.8514
170	71075.846
171	72146.5256
172	72529.0426
173	71644.3786
174	72629.5164
175	71315.0812
176	70654.6522
177	72792.7257
178	72303.1812
179	69669.8847
180	71494.57
181	73233.455
182	69876.2709
183	72173.7059
184	72295.5771
185	72360.7421
186	71539.9311
187	72270.1068
188	72630.4602
189	70931.1402
190	71379.712
191	70669.7297
192	70906.2271
193	71760.0731
194	70835.1371
195	71094.5214
196	70283.7043
197	70924.9372
198	70501.1403
199	69520.5631
200	142059.7317
