Position	Value
-200	2423.4172
-199	4745.2193
-198	4751.0893
-197	4974.0321
-196	4802.1717
-195	4734.593
-194	4571.5733
-193	4585.4951
-192	4544.149
-191	4870.8853
-190	4621.3788
-189	4961.3155
-188	4919.648
-187	5153.963
-186	4871.0499
-185	4857.8676
-184	4749.8298
-183	4907.6558
-182	4501.2078
-181	4815.7852
-180	4876.1072
-179	4587.2467
-178	4629.2763
-177	4995.5296
-176	4731.6152
-175	4694.3561
-174	4488.0492
-173	4613.0075
-172	4587.9211
-171	4577.204
-170	4675.4409
-169	4768.8536
-168	4790.6287
-167	4850.5333
-166	5014.9178
-165	5005.9461
-164	5176.507
-163	4955.7972
-162	5088.8803
-161	4961.4327
-160	4985.7115
-159	5164.0349
-158	4999.8793
-157	5189.2406
-156	5355.4159
-155	5348.7785
-154	5317.0539
-153	5184.6881
-152	5295.6562
-151	5087.299
-150	5048.2578
-149	4918.9016
-148	5041.614
-147	5065.1228
-146	4806.1802
-145	5101.6786
-144	4957.113
-143	5001.2745
-142	4874.0719
-141	5081.9574
-140	5006.5938
-139	4985.4425
-138	4880.6007
-137	5003.7309
-136	5059.4929
-135	4851.1445
-134	4946.9217
-133	5159.9881
-132	5306.9205
-131	5151.5301
-130	5037.5411
-129	5290.172
-128	5133.2776
-127	5359.6574
-126	5531.8147
-125	5139.0126
-124	5267.6407
-123	5574.3898
-122	5457.6226
-121	5459.3347
-120	5435.7099
-119	5337.0956
-118	5293.4279
-117	5090.9347
-116	4855.8577
-115	4807.5576
-114	4829.7897
-113	4817.0644
-112	4731.3621
-111	5309.6787
-110	4972.5226
-109	4917.0472
-108	5104.9273
-107	5001.3109
-106	4913.6922
-105	5001.9027
-104	5284.4718
-103	4926.4732
-102	5495.5512
-101	5328.4881
-100	5441.7572
-99	5806.6858
-98	5434.6195
-97	5785.8358
-96	5376.7454
-95	5688.5657
-94	5690.8045
-93	5677.9714
-92	5886.2453
-91	5698.9662
-90	5896.8921
-89	5592.0162
-88	5748.5882
-87	5556.9357
-86	5383.1823
-85	5132.4738
-84	5288.7736
-83	4737.7058
-82	4981.4304
-81	4983.0544
-80	4673.4067
-79	5209.8772
-78	5036.9796
-77	5068.9725
-76	5209.9262
-75	5055.9256
-74	5081.7581
-73	5222.2147
-72	5339.3446
-71	5122.5225
-70	5670.2015
-69	5965.2211
-68	5841.0639
-67	6005.9238
-66	6288.6598
-65	6418.3664
-64	6239.3005
-63	6867.9889
-62	6531.1593
-61	6375.1977
-60	6584.8113
-59	6674.422
-58	6579.966
-57	6305.7158
-56	6058.1242
-55	6135.5
-54	5692.4896
-53	5617.055
-52	5486.4634
-51	5326.0917
-50	5287.3808
-49	5009.1318
-48	5274.6233
-47	5261.8063
-46	4973.6561
-45	5024.0287
-44	5472.2691
-43	5182.2345
-42	5630.1033
-41	5325.8488
-40	5484.2008
-39	6007.7366
-38	5729.2555
-37	6203.4883
-36	6311.1184
-35	6435.9137
-34	6877.7781
-33	7104.5138
-32	7281.7924
-31	7193.0212
-30	7407.7165
-29	7231.0096
-28	7427.2593
-27	7050.3665
-26	6077.9504
-25	5218.9963
-24	5459.2075
-23	5391.5354
-22	5831.9592
-21	5868.6836
-20	5769.1401
-19	6085.326
-18	5712.7847
-17	6084.4205
-16	6594.7384
-15	6910.8553
-14	7265.9493
-13	7733.6198
-12	9204.8949
-11	10269.1999
-10	11576.5222
-9	12531.1021
-8	13806.5566
-7	15841.2037
-6	18377.1108
-5	21457.4843
-4	24455.9909
-3	27442.4395
-2	31704.5423
-1	31826.3949
0	338133.2946
1	31826.3949
2	31704.5423
3	27442.4395
4	24455.9909
5	21457.4843
6	18377.1108
7	15841.2037
8	13806.5566
9	12531.1021
10	11576.5222
11	10269.1999
12	9204.8949
13	7733.6198
14	7265.9493
15	6910.8553
16	6594.7384
17	6084.4205
18	5712.7847
19	6085.326
20	5769.1401
21	5868.6836
22	5831.9592
23	5391.5354
24	5459.2075
25	5218.9963
26	6077.9504
27	7050.3665
28	7427.2593
29	7231.0096
30	7407.7165
31	7193.0212
32	7281.7924
33	7104.5138
34	6877.7781
35	6435.9137
36	6311.1184
37	6203.4883
38	5729.2555
39	6007.7366
40	5484.2008
41	5325.8488
42	5630.1033
43	5182.2345
44	5472.2691
45	5024.0287
46	4973.6561
47	5261.8063
48	5274.6233
49	5009.1318
50	5287.3808
51	5326.0917
52	5486.4634
53	5617.055
54	5692.4896
55	6135.5
56	6058.1242
57	6305.7158
58	6579.966
59	6674.422
60	6584.8113
61	6375.1977
62	6531.1593
63	6867.9889
64	6239.3005
65	6418.3664
66	6288.6598
67	6005.9238
68	5841.0639
69	5965.2211
70	5670.2015
71	5122.5225
72	5339.3446
73	5222.2147
74	5081.7581
75	5055.9256
76	5209.9262
77	5068.9725
78	5036.9796
79	5209.8772
80	4673.4067
81	4983.0544
82	4981.4304
83	4737.7058
84	5288.7736
85	5132.4738
86	5383.1823
87	5556.9357
88	5748.5882
89	5592.0162
90	5896.8921
91	5698.9662
92	5886.2453
93	5677.9714
94	5690.8045
95	5688.5657
96	5376.7454
97	5785.8358
98	5434.6195
99	5806.6858
100	5441.7572
101	5328.4881
102	5495.5512
103	4926.4732
104	5284.4718
105	5001.9027
106	4913.6922
107	5001.3109
108	5104.9273
109	4917.0472
110	4972.5226
111	5309.6787
112	4731.3621
113	4817.0644
114	4829.7897
115	4807.5576
116	4855.8577
117	5090.9347
118	5293.4279
119	5337.0956
120	5435.7099
121	5459.3347
122	5457.6226
123	5574.3898
124	5267.6407
125	5139.0126
126	5531.8147
127	5359.6574
128	5133.2776
129	5290.172
130	5037.5411
131	5151.5301
132	5306.9205
133	5159.9881
134	4946.9217
135	4851.1445
136	5059.4929
137	5003.7309
138	4880.6007
139	4985.4425
140	5006.5938
141	5081.9574
142	4874.0719
143	5001.2745
144	4957.113
145	5101.6786
146	4806.1802
147	5065.1228
148	5041.614
149	4918.9016
150	5048.2578
151	5087.299
152	5295.6562
153	5184.6881
154	5317.0539
155	5348.7785
156	5355.4159
157	5189.2406
158	4999.8793
159	5164.0349
160	4985.7115
161	4961.4327
162	5088.8803
163	4955.7972
164	5176.507
165	5005.9461
166	5014.9178
167	4850.5333
168	4790.6287
169	4768.8536
170	4675.4409
171	4577.204
172	4587.9211
173	4613.0075
174	4488.0492
175	4694.3561
176	4731.6152
177	4995.5296
178	4629.2763
179	4587.2467
180	4876.1072
181	4815.7852
182	4501.2078
183	4907.6558
184	4749.8298
185	4857.8676
186	4871.0499
187	5153.963
188	4919.648
189	4961.3155
190	4621.3788
191	4870.8853
192	4544.149
193	4585.4951
194	4571.5733
195	4734.593
196	4802.1717
197	4974.0321
198	4751.0893
199	4745.2193
200	2423.4172
