Position	Value
-200	963581
-199	962920
-198	966076
-197	968899
-196	965818
-195	977253
-194	977770
-193	974646
-192	979125
-191	979539
-190	980113
-189	982799
-188	983390
-187	983556
-186	986243
-185	983038
-184	985708
-183	983351
-182	980328
-181	981834
-180	979232
-179	976077
-178	972204
-177	974874
-176	973062
-175	972144
-174	973501
-173	973999
-172	974781
-171	979590
-170	980772
-169	980965
-168	989577
-167	990349
-166	992669
-165	1.00E+06
-164	1.00E+06
-163	1.01E+06
-162	1.01E+06
-161	1.01E+06
-160	1.01E+06
-159	1.02E+06
-158	1.02E+06
-157	1.02E+06
-156	1.03E+06
-155	1.03E+06
-154	1.02E+06
-153	1.02E+06
-152	1.02E+06
-151	1.02E+06
-150	1.02E+06
-149	1.01E+06
-148	1.00E+06
-147	1.00E+06
-146	1.00E+06
-145	1.00E+06
-144	999118
-143	995448
-142	995159
-141	999170
-140	1.00E+06
-139	1.01E+06
-138	1.01E+06
-137	1.01E+06
-136	1.02E+06
-135	1.02E+06
-134	1.02E+06
-133	1.03E+06
-132	1.04E+06
-131	1.04E+06
-130	1.05E+06
-129	1.05E+06
-128	1.06E+06
-127	1.06E+06
-126	1.07E+06
-125	1.07E+06
-124	1.07E+06
-123	1.07E+06
-122	1.06E+06
-121	1.06E+06
-120	1.06E+06
-119	1.05E+06
-118	1.04E+06
-117	1.04E+06
-116	1.03E+06
-115	1.02E+06
-114	1.02E+06
-113	1.02E+06
-112	1.01E+06
-111	1.01E+06
-110	1.01E+06
-109	1.02E+06
-108	1.03E+06
-107	1.03E+06
-106	1.03E+06
-105	1.04E+06
-104	1.04E+06
-103	1.05E+06
-102	1.07E+06
-101	1.07E+06
-100	1.08E+06
-99	1.09E+06
-98	1.10E+06
-97	1.11E+06
-96	1.12E+06
-95	1.13E+06
-94	1.13E+06
-93	1.14E+06
-92	1.13E+06
-91	1.13E+06
-90	1.12E+06
-89	1.11E+06
-88	1.09E+06
-87	1.08E+06
-86	1.07E+06
-85	1.06E+06
-84	1.05E+06
-83	1.04E+06
-82	1.04E+06
-81	1.03E+06
-80	1.03E+06
-79	1.03E+06
-78	1.03E+06
-77	1.04E+06
-76	1.05E+06
-75	1.06E+06
-74	1.05E+06
-73	1.07E+06
-72	1.08E+06
-71	1.10E+06
-70	1.11E+06
-69	1.13E+06
-68	1.14E+06
-67	1.15E+06
-66	1.18E+06
-65	1.19E+06
-64	1.20E+06
-63	1.22E+06
-62	1.22E+06
-61	1.21E+06
-60	1.20E+06
-59	1.19E+06
-58	1.17E+06
-57	1.14E+06
-56	1.11E+06
-55	1.09E+06
-54	1.07E+06
-53	1.05E+06
-52	1.05E+06
-51	1.04E+06
-50	1.04E+06
-49	1.03E+06
-48	1.03E+06
-47	1.03E+06
-46	1.03E+06
-45	1.04E+06
-44	1.04E+06
-43	1.06E+06
-42	1.08E+06
-41	1.09E+06
-40	1.11E+06
-39	1.13E+06
-38	1.15E+06
-37	1.18E+06
-36	1.21E+06
-35	1.25E+06
-34	1.28E+06
-33	1.31E+06
-32	1.33E+06
-31	1.36E+06
-30	1.38E+06
-29	1.34E+06
-28	1.28E+06
-27	1.22E+06
-26	1.15E+06
-25	1.13E+06
-24	1.12E+06
-23	1.07E+06
-22	1.06E+06
-21	1.07E+06
-20	1.07E+06
-19	1.08E+06
-18	1.09E+06
-17	1.10E+06
-16	1.12E+06
-15	1.14E+06
-14	1.16E+06
-13	1.21E+06
-12	1.29E+06
-11	1.35E+06
-10	1.40E+06
-9	1.47E+06
-8	1.55E+06
-7	1.67E+06
-6	1.81E+06
-5	1.98E+06
-4	2.08E+06
-3	2.28E+06
-2	2.34E+06
-1	2.46E+06
0	9.80E+06
1	2.46E+06
2	2.34E+06
3	2.28E+06
4	2.08E+06
5	1.98E+06
6	1.81E+06
7	1.67E+06
8	1.55E+06
9	1.47E+06
10	1.40E+06
11	1.35E+06
12	1.29E+06
13	1.21E+06
14	1.16E+06
15	1.14E+06
16	1.12E+06
17	1.10E+06
18	1.09E+06
19	1.08E+06
20	1.07E+06
21	1.07E+06
22	1.06E+06
23	1.07E+06
24	1.12E+06
25	1.13E+06
26	1.15E+06
27	1.22E+06
28	1.28E+06
29	1.34E+06
30	1.38E+06
31	1.36E+06
32	1.33E+06
33	1.31E+06
34	1.28E+06
35	1.25E+06
36	1.21E+06
37	1.18E+06
38	1.15E+06
39	1.13E+06
40	1.11E+06
41	1.09E+06
42	1.08E+06
43	1.06E+06
44	1.04E+06
45	1.04E+06
46	1.03E+06
47	1.03E+06
48	1.03E+06
49	1.03E+06
50	1.04E+06
51	1.04E+06
52	1.05E+06
53	1.05E+06
54	1.07E+06
55	1.09E+06
56	1.11E+06
57	1.14E+06
58	1.17E+06
59	1.19E+06
60	1.20E+06
61	1.21E+06
62	1.22E+06
63	1.22E+06
64	1.20E+06
65	1.19E+06
66	1.18E+06
67	1.15E+06
68	1.14E+06
69	1.13E+06
70	1.11E+06
71	1.10E+06
72	1.08E+06
73	1.07E+06
74	1.05E+06
75	1.06E+06
76	1.05E+06
77	1.04E+06
78	1.03E+06
79	1.03E+06
80	1.03E+06
81	1.03E+06
82	1.04E+06
83	1.04E+06
84	1.05E+06
85	1.06E+06
86	1.07E+06
87	1.08E+06
88	1.09E+06
89	1.11E+06
90	1.12E+06
91	1.13E+06
92	1.13E+06
93	1.14E+06
94	1.13E+06
95	1.13E+06
96	1.12E+06
97	1.11E+06
98	1.10E+06
99	1.09E+06
100	1.08E+06
101	1.07E+06
102	1.07E+06
103	1.05E+06
104	1.04E+06
105	1.04E+06
106	1.03E+06
107	1.03E+06
108	1.03E+06
109	1.02E+06
110	1.01E+06
111	1.01E+06
112	1.01E+06
113	1.02E+06
114	1.02E+06
115	1.02E+06
116	1.03E+06
117	1.04E+06
118	1.04E+06
119	1.05E+06
120	1.06E+06
121	1.06E+06
122	1.06E+06
123	1.07E+06
124	1.07E+06
125	1.07E+06
126	1.07E+06
127	1.06E+06
128	1.06E+06
129	1.05E+06
130	1.05E+06
131	1.04E+06
132	1.04E+06
133	1.03E+06
134	1.02E+06
135	1.02E+06
136	1.02E+06
137	1.01E+06
138	1.01E+06
139	1.01E+06
140	1.00E+06
141	999170
142	995159
143	995448
144	999118
145	1.00E+06
146	1.00E+06
147	1.00E+06
148	1.00E+06
149	1.01E+06
150	1.02E+06
151	1.02E+06
152	1.02E+06
153	1.02E+06
154	1.02E+06
155	1.03E+06
156	1.03E+06
157	1.02E+06
158	1.02E+06
159	1.02E+06
160	1.01E+06
161	1.01E+06
162	1.01E+06
163	1.01E+06
164	1.00E+06
165	1.00E+06
166	992669
167	990349
168	989577
169	980965
170	980772
171	979590
172	974781
173	973999
174	973501
175	972144
176	973062
177	974874
178	972204
179	976077
180	979232
181	981834
182	980328
183	983351
184	985708
185	983038
186	986243
187	983556
188	983390
189	982799
190	980113
191	979539
192	979125
193	974646
194	977770
195	977253
196	965818
197	968899
198	966076
199	962920
200	963581
