Position	Value
-200	122436
-199	122479
-198	122659
-197	123952
-196	122838
-195	124471
-194	123775
-193	124441
-192	125558
-191	123720
-190	123918
-189	125679
-188	126248
-187	125933
-186	127424
-185	125396
-184	127332
-183	127057
-182	125812
-181	126547
-180	126098
-179	124535
-178	125315
-177	126477
-176	125195
-175	124683
-174	125238
-173	124714
-172	125613
-171	126712
-170	125242
-169	126758
-168	127060
-167	126576
-166	126492
-165	127373
-164	127044
-163	127651
-162	127391
-161	127703
-160	126995
-159	127866
-158	128080
-157	127859
-156	130477
-155	129332
-154	128808
-153	128426
-152	130390
-151	128348
-150	128531
-149	128452
-148	127302
-147	127428
-146	126299
-145	126121
-144	127218
-143	125290
-142	125467
-141	125628
-140	124618
-139	126868
-138	126673
-137	127484
-136	128156
-135	128585
-134	128302
-133	127655
-132	131448
-131	130080
-130	132474
-129	131934
-128	131786
-127	133027
-126	135186
-125	133234
-124	133993
-123	133930
-122	133428
-121	134285
-120	132712
-119	132362
-118	133329
-117	132258
-116	129144
-115	130491
-114	131071
-113	130765
-112	129294
-111	131078
-110	129875
-109	129356
-108	131129
-107	129956
-106	129063
-105	130900
-104	129133
-103	130416
-102	132398
-101	130928
-100	132311
-99	133859
-98	134963
-97	134403
-96	136925
-95	136473
-94	136469
-93	138723
-92	138048
-91	137629
-90	136927
-89	136707
-88	137420
-87	135459
-86	133003
-85	133284
-84	133928
-83	131387
-82	131905
-81	132053
-80	130931
-79	130490
-78	131343
-77	131067
-76	132212
-75	133917
-74	131751
-73	132988
-72	135234
-71	136034
-70	135897
-69	137665
-68	137993
-67	139062
-66	142082
-65	143785
-64	144516
-63	148212
-62	149650
-61	147845
-60	146502
-59	146991
-58	147712
-57	146024
-56	142389
-55	142271
-54	140798
-53	138098
-52	138308
-51	139220
-50	139521
-49	136120
-48	139747
-47	138190
-46	137718
-45	139004
-44	137813
-43	137494
-42	141395
-41	140356
-40	140934
-39	143154
-38	141641
-37	144303
-36	147607
-35	147946
-34	153265
-33	154722
-32	154982
-31	158467
-30	162443
-29	159657
-28	154100
-27	148451
-26	147338
-25	147001
-24	147737
-23	144942
-22	145216
-21	147173
-20	149865
-19	151448
-18	153834
-17	154425
-16	155138
-15	158492
-14	161336
-13	166748
-12	177078
-11	181657
-10	186190
-9	196838
-8	205938
-7	215633
-6	227764
-5	244756
-4	253907
-3	289723
-2	264265
-1	256937
0	1.05457e+06
1	256937
2	264265
3	289723
4	253907
5	244756
6	227764
7	215633
8	205938
9	196838
10	186190
11	181657
12	177078
13	166748
14	161336
15	158492
16	155138
17	154425
18	153834
19	151448
20	149865
21	147173
22	145216
23	144942
24	147737
25	147001
26	147338
27	148451
28	154100
29	159657
30	162443
31	158467
32	154982
33	154722
34	153265
35	147946
36	147607
37	144303
38	141641
39	143154
40	140934
41	140356
42	141395
43	137494
44	137813
45	139004
46	137718
47	138190
48	139747
49	136120
50	139521
51	139220
52	138308
53	138098
54	140798
55	142271
56	142389
57	146024
58	147712
59	146991
60	146502
61	147845
62	149650
63	148212
64	144516
65	143785
66	142082
67	139062
68	137993
69	137665
70	135897
71	136034
72	135234
73	132988
74	131751
75	133917
76	132212
77	131067
78	131343
79	130490
80	130931
81	132053
82	131905
83	131387
84	133928
85	133284
86	133003
87	135459
88	137420
89	136707
90	136927
91	137629
92	138048
93	138723
94	136469
95	136473
96	136925
97	134403
98	134963
99	133859
100	132311
101	130928
102	132398
103	130416
104	129133
105	130900
106	129063
107	129956
108	131129
109	129356
110	129875
111	131078
112	129294
113	130765
114	131071
115	130491
116	129144
117	132258
118	133329
119	132362
120	132712
121	134285
122	133428
123	133930
124	133993
125	133234
126	135186
127	133027
128	131786
129	131934
130	132474
131	130080
132	131448
133	127655
134	128302
135	128585
136	128156
137	127484
138	126673
139	126868
140	124618
141	125628
142	125467
143	125290
144	127218
145	126121
146	126299
147	127428
148	127302
149	128452
150	128531
151	128348
152	130390
153	128426
154	128808
155	129332
156	130477
157	127859
158	128080
159	127866
160	126995
161	127703
162	127391
163	127651
164	127044
165	127373
166	126492
167	126576
168	127060
169	126758
170	125242
171	126712
172	125613
173	124714
174	125238
175	124683
176	125195
177	126477
178	125315
179	124535
180	126098
181	126547
182	125812
183	127057
184	127332
185	125396
186	127424
187	125933
188	126248
189	125679
190	123918
191	123720
192	125558
193	124441
194	123775
195	124471
196	122838
197	123952
198	122659
199	122479
200	122436
