Position	Value
-200	50664.3569
-199	103289.76
-198	104075.2329
-197	103282.9909
-196	102958.4119
-195	105742.3162
-194	106507.7406
-193	104994.4088
-192	105238.8817
-191	105478.6352
-190	106118.381
-189	107764.584
-188	105494.7527
-187	106270.7339
-186	106561.5821
-185	106819.325
-184	105640.9503
-183	107609.2586
-182	106841.3495
-181	105522.912
-180	107332.5901
-179	104928.2331
-178	105634.3584
-177	107010.6429
-176	106213.606
-175	105587.2183
-174	104624.4851
-173	105766.3154
-172	105645.8718
-171	105117.3341
-170	105463.7212
-169	105660.2973
-168	106879.8612
-167	106723.6074
-166	107236.2016
-165	110071.5613
-164	108448.0309
-163	108846.3958
-162	110490.622
-161	111795.6204
-160	110451.8101
-159	112420.0335
-158	112344.0564
-157	113540.5045
-156	114087.432
-155	112029.5978
-154	113679.8377
-153	111543.5751
-152	111671.492
-151	111575.3207
-150	111701.3692
-149	109265.6805
-148	109320.3742
-147	110764.1512
-146	107917.6102
-145	109099.5645
-144	108926.4393
-143	107747.0597
-142	106362.5574
-141	109140.7608
-140	108760.4203
-139	108793.1537
-138	110345.6428
-137	107739.3234
-136	110090.0647
-135	113274.043
-134	110323.7902
-133	112718.8505
-132	113573.3218
-131	113973.1416
-130	114239.1409
-129	115835.4215
-128	117023.2028
-127	117494.0442
-126	119964.6081
-125	118894.231
-124	117944.8869
-123	119196.7105
-122	119566.3038
-121	117197.2069
-120	116476.1186
-119	115196.6384
-118	114688.1353
-117	115090.585
-116	112173.1638
-115	110625.3102
-114	111727.3827
-113	109544.256
-112	109688.176
-111	111076.7079
-110	109779.8048
-109	109812.398
-108	111145.0849
-107	109568.9461
-106	111202.449
-105	112616.6104
-104	113815.9769
-103	114591.7458
-102	117023.7118
-101	115269.4585
-100	118058.3197
-99	120955.9667
-98	121366.0669
-97	123061.5931
-96	126120.4439
-95	126812.4779
-94	125592.1909
-93	128528.1624
-92	126102.7941
-91	126692.3942
-90	125022.7743
-89	123800.4097
-88	121035.7957
-87	121130.3868
-86	117663.3333
-85	116151.9737
-84	114267.1023
-83	112234.2403
-82	110580.1463
-81	111476.9778
-80	112205.2345
-79	111274.8859
-78	111316.7338
-77	109539.2501
-76	111170.0701
-75	113816.0559
-74	111953.4837
-73	113990.3431
-72	117709.119
-71	117052.2061
-70	120822.2674
-69	124217.994
-68	123088.517
-67	127243.236
-66	132001.1791
-65	131205.9797
-64	134998.1674
-63	139078.0333
-62	141149.6394
-61	139071.0997
-60	139985.5808
-59	135943.7301
-58	132639.1208
-57	130480.4697
-56	122548.6602
-55	119326.8275
-54	117980.3247
-53	114351.9097
-52	112595.9982
-51	115930.2224
-50	113225.2994
-49	110571.9356
-48	112595.1804
-47	111176.0713
-46	111962.6448
-45	113413.2449
-44	111559.8251
-43	113512.8249
-42	117065.3651
-41	117211.9814
-40	118416.149
-39	123505.53
-38	124066.4862
-37	127700.1713
-36	131830.5447
-35	136932.5083
-34	141149.3105
-33	151473.0813
-32	154914.8695
-31	160539.369
-30	168677.2265
-29	162058.8483
-28	151085.3805
-27	139392.7837
-26	127850.7847
-25	121202.3921
-24	123722.0046
-23	121701.1581
-22	121638.2705
-21	131054.9068
-20	128914.3871
-19	129755.2256
-18	135223.2436
-17	135546.0187
-16	138731.7178
-15	143245.2319
-14	146463.665
-13	153627.9451
-12	167374.2128
-11	175506.375
-10	179205.9497
-9	181174.0255
-8	188239.5592
-7	204316.3667
-6	218233.4489
-5	228620.0611
-4	254542.17
-3	270915.071
-2	291030.846
-1	295508.7334
0	3098294.9269
1	295508.7334
2	291030.846
3	270915.071
4	254542.17
5	228620.0611
6	218233.4489
7	204316.3667
8	188239.5592
9	181174.0255
10	179205.9497
11	175506.375
12	167374.2128
13	153627.9451
14	146463.665
15	143245.2319
16	138731.7178
17	135546.0187
18	135223.2436
19	129755.2256
20	128914.3871
21	131054.9068
22	121638.2705
23	121701.1581
24	123722.0046
25	121202.3921
26	127850.7847
27	139392.7837
28	151085.3805
29	162058.8483
30	168677.2265
31	160539.369
32	154914.8695
33	151473.0813
34	141149.3105
35	136932.5083
36	131830.5447
37	127700.1713
38	124066.4862
39	123505.53
40	118416.149
41	117211.9814
42	117065.3651
43	113512.8249
44	111559.8251
45	113413.2449
46	111962.6448
47	111176.0713
48	112595.1804
49	110571.9356
50	113225.2994
51	115930.2224
52	112595.9982
53	114351.9097
54	117980.3247
55	119326.8275
56	122548.6602
57	130480.4697
58	132639.1208
59	135943.7301
60	139985.5808
61	139071.0997
62	141149.6394
63	139078.0333
64	134998.1674
65	131205.9797
66	132001.1791
67	127243.236
68	123088.517
69	124217.994
70	120822.2674
71	117052.2061
72	117709.119
73	113990.3431
74	111953.4837
75	113816.0559
76	111170.0701
77	109539.2501
78	111316.7338
79	111274.8859
80	112205.2345
81	111476.9778
82	110580.1463
83	112234.2403
84	114267.1023
85	116151.9737
86	117663.3333
87	121130.3868
88	121035.7957
89	123800.4097
90	125022.7743
91	126692.3942
92	126102.7941
93	128528.1624
94	125592.1909
95	126812.4779
96	126120.4439
97	123061.5931
98	121366.0669
99	120955.9667
100	118058.3197
101	115269.4585
102	117023.7118
103	114591.7458
104	113815.9769
105	112616.6104
106	111202.449
107	109568.9461
108	111145.0849
109	109812.398
110	109779.8048
111	111076.7079
112	109688.176
113	109544.256
114	111727.3827
115	110625.3102
116	112173.1638
117	115090.585
118	114688.1353
119	115196.6384
120	116476.1186
121	117197.2069
122	119566.3038
123	119196.7105
124	117944.8869
125	118894.231
126	119964.6081
127	117494.0442
128	117023.2028
129	115835.4215
130	114239.1409
131	113973.1416
132	113573.3218
133	112718.8505
134	110323.7902
135	113274.043
136	110090.0647
137	107739.3234
138	110345.6428
139	108793.1537
140	108760.4203
141	109140.7608
142	106362.5574
143	107747.0597
144	108926.4393
145	109099.5645
146	107917.6102
147	110764.1512
148	109320.3742
149	109265.6805
150	111701.3692
151	111575.3207
152	111671.492
153	111543.5751
154	113679.8377
155	112029.5978
156	114087.432
157	113540.5045
158	112344.0564
159	112420.0335
160	110451.8101
161	111795.6204
162	110490.622
163	108846.3958
164	108448.0309
165	110071.5613
166	107236.2016
167	106723.6074
168	106879.8612
169	105660.2973
170	105463.7212
171	105117.3341
172	105645.8718
173	105766.3154
174	104624.4851
175	105587.2183
176	106213.606
177	107010.6429
178	105634.3584
179	104928.2331
180	107332.5901
181	105522.912
182	106841.3495
183	107609.2586
184	105640.9503
185	106819.325
186	106561.5821
187	106270.7339
188	105494.7527
189	107764.584
190	106118.381
191	105478.6352
192	105238.8817
193	104994.4088
194	106507.7406
195	105742.3162
196	102958.4119
197	103282.9909
198	104075.2329
199	103289.76
200	50664.3569
