Position	Value
-200	17903.8104
-199	36464.7522
-198	36407.4502
-197	36467.7001
-196	36840.1802
-195	37065.2062
-194	36082.8768
-193	36858.5996
-192	36833.0955
-191	36724.4003
-190	37013.4268
-189	37522.1882
-188	37600.6172
-187	37532.2596
-186	37638.9922
-185	37118.8538
-184	36934.715
-183	37130.9913
-182	36776.6739
-181	37352.5692
-180	37297.276
-179	36754.3732
-178	37308.773
-177	37289.1015
-176	37245.9501
-175	37073.3529
-174	36950.8893
-173	36991.1659
-172	36785.2817
-171	37064.8539
-170	36685.5147
-169	36978.6412
-168	37192.8338
-167	37397.8574
-166	37175.5552
-165	38154.7668
-164	37494.9662
-163	37839.7145
-162	38102.41
-161	37192.9386
-160	38141.749
-159	38476.7393
-158	38589.1382
-157	37923.8021
-156	39623.6926
-155	38732.5
-154	38868.0708
-153	38290.0038
-152	38861.8404
-151	38600.2289
-150	37723.1401
-149	38057.4299
-148	37963.2813
-147	38094.3299
-146	37452.0985
-145	38179.3388
-144	39094.9276
-143	39310.7697
-142	38467.0996
-141	38269.5196
-140	38391.4696
-139	38351.3868
-138	38770.0165
-137	38745.7208
-136	38815.4297
-135	39538.2079
-134	39983.7075
-133	39659.7203
-132	40317.6505
-131	39984.8215
-130	40298.9372
-129	40289.6293
-128	40256.3902
-127	40355.8924
-126	40809.1685
-125	40718.4854
-124	41285.6533
-123	41503.8997
-122	41339.6496
-121	41938.1076
-120	41541.7933
-119	41577.7535
-118	41132.9347
-117	41101.8459
-116	39610.657
-115	39900.2006
-114	40013.7397
-113	39931.5723
-112	40166.8382
-111	40982.6524
-110	41205.4466
-109	39473.2281
-108	40647.4727
-107	40511.636
-106	39788.4017
-105	40363.8044
-104	40247.9906
-103	40329.9772
-102	41255.2134
-101	41505.4388
-100	42131.0769
-99	43343.9998
-98	42941.8558
-97	43240.9552
-96	43423.8035
-95	43473.7739
-94	43235.3432
-93	43801.2527
-92	43336.9055
-91	43528.9187
-90	43991.24
-89	43771.0459
-88	44007.9867
-87	43490.4203
-86	42895.9975
-85	41881.7992
-84	42411.7398
-83	41621.8249
-82	41919.8621
-81	42379.6697
-80	41538.2497
-79	42510.5424
-78	42803.4782
-77	42858.4319
-76	43245.916
-75	43174.1006
-74	41994.4949
-73	43275.365
-72	43448.517
-71	43677.2788
-70	44485.6052
-69	45418.4084
-68	45484.11
-67	46340.4452
-66	47291.3506
-65	48294.153
-64	48696.8863
-63	49167.5589
-62	49017.8625
-61	49216.0014
-60	49019.7488
-59	49585.3626
-58	48543.2415
-57	48263.478
-56	47518.2836
-55	46747.6829
-54	45564.3572
-53	45643.9278
-52	44735.2429
-51	44246.8724
-50	44208.896
-49	44357.9521
-48	44840.1724
-47	44604.1676
-46	44688.1017
-45	45753.5701
-44	45587.0868
-43	45805.7845
-42	47371.7753
-41	45952.6646
-40	46814.6839
-39	48296.6622
-38	48640.857
-37	49192.0456
-36	50959.5546
-35	52282.265
-34	54370.7827
-33	56579.7854
-32	56376.4485
-31	56759.6346
-30	57071.4992
-29	56586.8384
-28	56947.8218
-27	54386.6521
-26	49392.1739
-25	46936.7641
-24	46466.7852
-23	45204.7047
-22	44869.8603
-21	46136.5307
-20	46038.382
-19	46682.7393
-18	48386.1389
-17	48633.9231
-16	49394.7559
-15	51258.1651
-14	51945.7871
-13	54207.8763
-12	58807.6766
-11	61245.1265
-10	63135.5218
-9	66934.2613
-8	70141.8561
-7	75769.4268
-6	83019.4423
-5	92972.1625
-4	104301.4665
-3	121963.9728
-2	139756.9048
-1	154494.2539
0	1254371.4949
1	154494.2539
2	139756.9048
3	121963.9728
4	104301.4665
5	92972.1625
6	83019.4423
7	75769.4268
8	70141.8561
9	66934.2613
10	63135.5218
11	61245.1265
12	58807.6766
13	54207.8763
14	51945.7871
15	51258.1651
16	49394.7559
17	48633.9231
18	48386.1389
19	46682.7393
20	46038.382
21	46136.5307
22	44869.8603
23	45204.7047
24	46466.7852
25	46936.7641
26	49392.1739
27	54386.6521
28	56947.8218
29	56586.8384
30	57071.4992
31	56759.6346
32	56376.4485
33	56579.7854
34	54370.7827
35	52282.265
36	50959.5546
37	49192.0456
38	48640.857
39	48296.6622
40	46814.6839
41	45952.6646
42	47371.7753
43	45805.7845
44	45587.0868
45	45753.5701
46	44688.1017
47	44604.1676
48	44840.1724
49	44357.9521
50	44208.896
51	44246.8724
52	44735.2429
53	45643.9278
54	45564.3572
55	46747.6829
56	47518.2836
57	48263.478
58	48543.2415
59	49585.3626
60	49019.7488
61	49216.0014
62	49017.8625
63	49167.5589
64	48696.8863
65	48294.153
66	47291.3506
67	46340.4452
68	45484.11
69	45418.4084
70	44485.6052
71	43677.2788
72	43448.517
73	43275.365
74	41994.4949
75	43174.1006
76	43245.916
77	42858.4319
78	42803.4782
79	42510.5424
80	41538.2497
81	42379.6697
82	41919.8621
83	41621.8249
84	42411.7398
85	41881.7992
86	42895.9975
87	43490.4203
88	44007.9867
89	43771.0459
90	43991.24
91	43528.9187
92	43336.9055
93	43801.2527
94	43235.3432
95	43473.7739
96	43423.8035
97	43240.9552
98	42941.8558
99	43343.9998
100	42131.0769
101	41505.4388
102	41255.2134
103	40329.9772
104	40247.9906
105	40363.8044
106	39788.4017
107	40511.636
108	40647.4727
109	39473.2281
110	41205.4466
111	40982.6524
112	40166.8382
113	39931.5723
114	40013.7397
115	39900.2006
116	39610.657
117	41101.8459
118	41132.9347
119	41577.7535
120	41541.7933
121	41938.1076
122	41339.6496
123	41503.8997
124	41285.6533
125	40718.4854
126	40809.1685
127	40355.8924
128	40256.3902
129	40289.6293
130	40298.9372
131	39984.8215
132	40317.6505
133	39659.7203
134	39983.7075
135	39538.2079
136	38815.4297
137	38745.7208
138	38770.0165
139	38351.3868
140	38391.4696
141	38269.5196
142	38467.0996
143	39310.7697
144	39094.9276
145	38179.3388
146	37452.0985
147	38094.3299
148	37963.2813
149	38057.4299
150	37723.1401
151	38600.2289
152	38861.8404
153	38290.0038
154	38868.0708
155	38732.5
156	39623.6926
157	37923.8021
158	38589.1382
159	38476.7393
160	38141.749
161	37192.9386
162	38102.41
163	37839.7145
164	37494.9662
165	38154.7668
166	37175.5552
167	37397.8574
168	37192.8338
169	36978.6412
170	36685.5147
171	37064.8539
172	36785.2817
173	36991.1659
174	36950.8893
175	37073.3529
176	37245.9501
177	37289.1015
178	37308.773
179	36754.3732
180	37297.276
181	37352.5692
182	36776.6739
183	37130.9913
184	36934.715
185	37118.8538
186	37638.9922
187	37532.2596
188	37600.6172
189	37522.1882
190	37013.4268
191	36724.4003
192	36833.0955
193	36858.5996
194	36082.8768
195	37065.2062
196	36840.1802
197	36467.7001
198	36407.4502
199	36464.7522
200	17903.8104
