Position	Value
-200	70588.9276
-199	34981.6069
-198	34957.5686
-197	34724.1916
-196	34633.7208
-195	35714.1324
-194	35454.5387
-193	34633.2189
-192	35295.3722
-191	34837.9147
-190	35620.8949
-189	35095.159
-188	35880.2852
-187	35896.9611
-186	35653.3514
-185	35590.723
-184	35558.785
-183	35696.2842
-182	35018.9645
-181	35951.8782
-180	35442.1188
-179	34871.5321
-178	35253.5065
-177	36012.925
-176	35331.9593
-175	35714.7676
-174	36112.7601
-173	35794.9539
-172	36500.1333
-171	35811.6504
-170	36048.2299
-169	37855.2668
-168	36503.5249
-167	36643.6551
-166	37115.4786
-165	37459.0915
-164	36554.3375
-163	36928.6937
-162	37618.8658
-161	36723.4154
-160	37306.5295
-159	37541.8848
-158	36566.0705
-157	36771.1202
-156	38141.7701
-155	36818.725
-154	36939.9313
-153	37230.5976
-152	37331.7026
-151	36864.6525
-150	36289.6532
-149	36765.7354
-148	36397.1109
-147	36979.2537
-146	36897.7285
-145	36455.9578
-144	36910.7279
-143	37118.3555
-142	37606.8812
-141	36651.2301
-140	38050.9499
-139	38186.1825
-138	38565.1778
-137	38691.071
-136	38502.4962
-135	39087.6278
-134	38545.2403
-133	38817.717
-132	39199.9136
-131	39625.1364
-130	40619.2133
-129	40429.6386
-128	39970.5331
-127	40692.936
-126	41102.4648
-125	39889.4508
-124	39867.0831
-123	40354.4493
-122	39931.6552
-121	39707.812
-120	40242.0467
-119	39237.452
-118	39097.6634
-117	38974.2235
-116	37545.705
-115	38504.4733
-114	39642.4661
-113	38858.3863
-112	38910.8027
-111	38972.6787
-110	40587.7735
-109	39775.5927
-108	40616.6971
-107	40113.7725
-106	40653.0892
-105	41138.6559
-104	40758.4595
-103	40679.1797
-102	42112.0915
-101	41458.2518
-100	41899.3021
-99	43210.2957
-98	43297.0276
-97	42886.5321
-96	44323.9599
-95	43104.7789
-94	44256.4178
-93	43962.0955
-92	43424.4036
-91	43194.3313
-90	42238.955
-89	42274.458
-88	41885.1059
-87	41229.9001
-86	42041.6209
-85	39683.6713
-84	41397.3465
-83	39093.8266
-82	40152.29
-81	40673.8855
-80	40009.7874
-79	40266.9306
-78	40737.8766
-77	41117.4778
-76	41803.1964
-75	42526.0582
-74	42453.3236
-73	43450.4488
-72	43740.3271
-71	44000.6659
-70	45783.4027
-69	45915.3683
-68	46561.5232
-67	47560.7598
-66	48707.7809
-65	48652.3219
-64	48790.1421
-63	49395.4633
-62	50378.6147
-61	49416.3691
-60	47638.0597
-59	48046.7363
-58	47770.3608
-57	46122.8876
-56	44393.1738
-55	44510.1859
-54	43525.7873
-53	43317.3634
-52	43645.7759
-51	43042.8095
-50	42172.9668
-49	42590.9098
-48	43426.3679
-47	42603.7765
-46	43115.3055
-45	42986.214
-44	43253.5207
-43	44247.3464
-42	45421.1724
-41	45805.7083
-40	46312.351
-39	47693.4687
-38	48741.7557
-37	50204.1334
-36	51568.4405
-35	53317.1892
-34	54909.437
-33	55590.3827
-32	56584.2486
-31	57969.8828
-30	58490.4777
-29	55839.4775
-28	52888.5156
-27	48770.0906
-26	47808.8159
-25	47254.8491
-24	47037.2901
-23	46038.1938
-22	46248.1109
-21	48530.972
-20	47746.9188
-19	48042.4105
-18	48987.1107
-17	48551.5059
-16	47725.5384
-15	48894.5007
-14	49331.1219
-13	51497.7474
-12	53636.5434
-11	54689.9001
-10	54095.1427
-9	56914.5174
-8	56888.3456
-7	59678.1996
-6	60926.3598
-5	64471.8006
-4	70176.0895
-3	74126.4125
-2	65837.5846
-1	71187.9693
0	401238.6938
1	71187.9693
2	65837.5846
3	74126.4125
4	70176.0895
5	64471.8006
6	60926.3598
7	59678.1996
8	56888.3456
9	56914.5174
10	54095.1427
11	54689.9001
12	53636.5434
13	51497.7474
14	49331.1219
15	48894.5007
16	47725.5384
17	48551.5059
18	48987.1107
19	48042.4105
20	47746.9188
21	48530.972
22	46248.1109
23	46038.1938
24	47037.2901
25	47254.8491
26	47808.8159
27	48770.0906
28	52888.5156
29	55839.4775
30	58490.4777
31	57969.8828
32	56584.2486
33	55590.3827
34	54909.437
35	53317.1892
36	51568.4405
37	50204.1334
38	48741.7557
39	47693.4687
40	46312.351
41	45805.7083
42	45421.1724
43	44247.3464
44	43253.5207
45	42986.214
46	43115.3055
47	42603.7765
48	43426.3679
49	42590.9098
50	42172.9668
51	43042.8095
52	43645.7759
53	43317.3634
54	43525.7873
55	44510.1859
56	44393.1738
57	46122.8876
58	47770.3608
59	48046.7363
60	47638.0597
61	49416.3691
62	50378.6147
63	49395.4633
64	48790.1421
65	48652.3219
66	48707.7809
67	47560.7598
68	46561.5232
69	45915.3683
70	45783.4027
71	44000.6659
72	43740.3271
73	43450.4488
74	42453.3236
75	42526.0582
76	41803.1964
77	41117.4778
78	40737.8766
79	40266.9306
80	40009.7874
81	40673.8855
82	40152.29
83	39093.8266
84	41397.3465
85	39683.6713
86	42041.6209
87	41229.9001
88	41885.1059
89	42274.458
90	42238.955
91	43194.3313
92	43424.4036
93	43962.0955
94	44256.4178
95	43104.7789
96	44323.9599
97	42886.5321
98	43297.0276
99	43210.2957
100	41899.3021
101	41458.2518
102	42112.0915
103	40679.1797
104	40758.4595
105	41138.6559
106	40653.0892
107	40113.7725
108	40616.6971
109	39775.5927
110	40587.7735
111	38972.6787
112	38910.8027
113	38858.3863
114	39642.4661
115	38504.4733
116	37545.705
117	38974.2235
118	39097.6634
119	39237.452
120	40242.0467
121	39707.812
122	39931.6552
123	40354.4493
124	39867.0831
125	39889.4508
126	41102.4648
127	40692.936
128	39970.5331
129	40429.6386
130	40619.2133
131	39625.1364
132	39199.9136
133	38817.717
134	38545.2403
135	39087.6278
136	38502.4962
137	38691.071
138	38565.1778
139	38186.1825
140	38050.9499
141	36651.2301
142	37606.8812
143	37118.3555
144	36910.7279
145	36455.9578
146	36897.7285
147	36979.2537
148	36397.1109
149	36765.7354
150	36289.6532
151	36864.6525
152	37331.7026
153	37230.5976
154	36939.9313
155	36818.725
156	38141.7701
157	36771.1202
158	36566.0705
159	37541.8848
160	37306.5295
161	36723.4154
162	37618.8658
163	36928.6937
164	36554.3375
165	37459.0915
166	37115.4786
167	36643.6551
168	36503.5249
169	37855.2668
170	36048.2299
171	35811.6504
172	36500.1333
173	35794.9539
174	36112.7601
175	35714.7676
176	35331.9593
177	36012.925
178	35253.5065
179	34871.5321
180	35442.1188
181	35951.8782
182	35018.9645
183	35696.2842
184	35558.785
185	35590.723
186	35653.3514
187	35896.9611
188	35880.2852
189	35095.159
190	35620.8949
191	34837.9147
192	35295.3722
193	34633.2189
194	35454.5387
195	35714.1324
196	34633.7208
197	34724.1916
198	34957.5686
199	34981.6069
200	70588.9276
