Position	Value
-200	887.03
-199	874.917
-198	951.305
-197	901.132
-196	943.784
-195	1001.35
-194	943.028
-193	891.247
-192	920.056
-191	924.163
-190	918.472
-189	1021.39
-188	1002.52
-187	984.684
-186	1000.93
-185	967.364
-184	971.574
-183	987.268
-182	925.929
-181	897.393
-180	1030.45
-179	925.438
-178	982.455
-177	999.601
-176	922.9
-175	961.402
-174	968.615
-173	944.207
-172	941.475
-171	924.44
-170	887.715
-169	897.779
-168	946.144
-167	914.804
-166	937.086
-165	985.754
-164	880.754
-163	891.989
-162	959.766
-161	921.698
-160	1027.38
-159	1001.76
-158	910.425
-157	920.222
-156	1065.41
-155	974.198
-154	994.805
-153	1065.67
-152	984.802
-151	1052.75
-150	1047.27
-149	978.388
-148	998.081
-147	1018.79
-146	930.337
-145	1005.28
-144	1003.09
-143	995.527
-142	993.278
-141	986.284
-140	1018.81
-139	1057.07
-138	1076.49
-137	1077.84
-136	1072.35
-135	1060.95
-134	1021.47
-133	1029.99
-132	1054.84
-131	1025.72
-130	1080.01
-129	1109.75
-128	1041.04
-127	1097.69
-126	1130.06
-125	1120.74
-124	1033.11
-123	1131
-122	1123.46
-121	1144.01
-120	1100.64
-119	1110.87
-118	1149.01
-117	1149.25
-116	1079.2
-115	1147.42
-114	1160.7
-113	1082.85
-112	1132.08
-111	1133.28
-110	1074.81
-109	1161.48
-108	1135.57
-107	1065.36
-106	1027.02
-105	1141.36
-104	1046.74
-103	1037.96
-102	1138.51
-101	1048.36
-100	1071.62
-99	1168.88
-98	1115.52
-97	1041.88
-96	1135.24
-95	1069.93
-94	1141.39
-93	1129.72
-92	1073.88
-91	1097.05
-90	1126.95
-89	1066.76
-88	1147.88
-87	1187.59
-86	1130.22
-85	1074.06
-84	1190.74
-83	1134.65
-82	1098.34
-81	1206.39
-80	1162.15
-79	1167.61
-78	1256.52
-77	1224.59
-76	1200.41
-75	1253.56
-74	1223.15
-73	1244.74
-72	1240.35
-71	1184.74
-70	1239.38
-69	1249.45
-68	1181.52
-67	1181.18
-66	1197.51
-65	1248.61
-64	1214.36
-63	1234.84
-62	1241.85
-61	1202.98
-60	1256.61
-59	1248.52
-58	1219.6
-57	1328.89
-56	1265.84
-55	1315.71
-54	1252.01
-53	1177.69
-52	1197.41
-51	1256.47
-50	1236.54
-49	1210.98
-48	1341.42
-47	1262
-46	1284.54
-45	1343.47
-44	1277.72
-43	1309.84
-42	1380.61
-41	1329.24
-40	1326.03
-39	1409.81
-38	1369.77
-37	1377.55
-36	1456.67
-35	1446.94
-34	1463
-33	1508.2
-32	1415.61
-31	1417.89
-30	1527.91
-29	1403.43
-28	1388.25
-27	1507.75
-26	1347.57
-25	1567.12
-24	1722.34
-23	1268.39
-22	1288.38
-21	1284.77
-20	1204.18
-19	1111.75
-18	1355.13
-17	1313.47
-16	1352.59
-15	1556.72
-14	1580.92
-13	1621.56
-12	1855.18
-11	1883.95
-10	2029.93
-9	2199.1
-8	2346.39
-7	2635.66
-6	2978.05
-5	3238.19
-4	3589.45
-3	4660.04
-2	4944.32
-1	6684.34
0	56332
1	6684.34
2	4944.32
3	4660.04
4	3589.45
5	3238.19
6	2978.05
7	2635.66
8	2346.39
9	2199.1
10	2029.93
11	1883.95
12	1855.18
13	1621.56
14	1580.92
15	1556.72
16	1352.59
17	1313.47
18	1355.13
19	1111.75
20	1204.18
21	1284.77
22	1288.38
23	1268.39
24	1722.34
25	1567.12
26	1347.57
27	1507.75
28	1388.25
29	1403.43
30	1527.91
31	1417.89
32	1415.61
33	1508.2
34	1463
35	1446.94
36	1456.67
37	1377.55
38	1369.77
39	1409.81
40	1326.03
41	1329.24
42	1380.61
43	1309.84
44	1277.72
45	1343.47
46	1284.54
47	1262
48	1341.42
49	1210.98
50	1236.54
51	1256.47
52	1197.41
53	1177.69
54	1252.01
55	1315.71
56	1265.84
57	1328.89
58	1219.6
59	1248.52
60	1256.61
61	1202.98
62	1241.85
63	1234.84
64	1214.36
65	1248.61
66	1197.51
67	1181.18
68	1181.52
69	1249.45
70	1239.38
71	1184.74
72	1240.35
73	1244.74
74	1223.15
75	1253.56
76	1200.41
77	1224.59
78	1256.52
79	1167.61
80	1162.15
81	1206.39
82	1098.34
83	1134.65
84	1190.74
85	1074.06
86	1130.22
87	1187.59
88	1147.88
89	1066.76
90	1126.95
91	1097.05
92	1073.88
93	1129.72
94	1141.39
95	1069.93
96	1135.24
97	1041.88
98	1115.52
99	1168.88
100	1071.62
101	1048.36
102	1138.51
103	1037.96
104	1046.74
105	1141.36
106	1027.02
107	1065.36
108	1135.57
109	1161.48
110	1074.81
111	1133.28
112	1132.08
113	1082.85
114	1160.7
115	1147.42
116	1079.2
117	1149.25
118	1149.01
119	1110.87
120	1100.64
121	1144.01
122	1123.46
123	1131
124	1033.11
125	1120.74
126	1130.06
127	1097.69
128	1041.04
129	1109.75
130	1080.01
131	1025.72
132	1054.84
133	1029.99
134	1021.47
135	1060.95
136	1072.35
137	1077.84
138	1076.49
139	1057.07
140	1018.81
141	986.284
142	993.278
143	995.527
144	1003.09
145	1005.28
146	930.337
147	1018.79
148	998.081
149	978.388
150	1047.27
151	1052.75
152	984.802
153	1065.67
154	994.805
155	974.198
156	1065.41
157	920.222
158	910.425
159	1001.76
160	1027.38
161	921.698
162	959.766
163	891.989
164	880.754
165	985.754
166	937.086
167	914.804
168	946.144
169	897.779
170	887.715
171	924.44
172	941.475
173	944.207
174	968.615
175	961.402
176	922.9
177	999.601
178	982.455
179	925.438
180	1030.45
181	897.393
182	925.929
183	987.268
184	971.574
185	967.364
186	1000.93
187	984.684
188	1002.52
189	1021.39
190	918.472
191	924.163
192	920.056
193	891.247
194	943.028
195	1001.35
196	943.784
197	901.132
198	951.305
199	874.917
200	887.03
