Position	Value
-200	1680.8388
-199	1757.8205
-198	1694.5676
-197	1733.8392
-196	1691.5603
-195	1707.2445
-194	1904.2914
-193	1614.0289
-192	1646.7299
-191	1721.8683
-190	1617.7744
-189	1700.8385
-188	1830.2628
-187	1752.8739
-186	1697.1165
-185	1712.8636
-184	1755.9755
-183	1827.8803
-182	1703.6667
-181	1773.3148
-180	1697.612
-179	1714.4899
-178	1726.4494
-177	1732.6746
-176	1939.3409
-175	1668.9981
-174	1820.5559
-173	1824.1389
-172	1817.8311
-171	1840.1608
-170	1734.5228
-169	1842.4945
-168	1766.602
-167	1774.1683
-166	1758.198
-165	1855.8446
-164	1740.6229
-163	1647.4926
-162	1748.6388
-161	1705.6201
-160	1610.5772
-159	1705.7147
-158	1749.8424
-157	1741.3224
-156	1739.5616
-155	1810.8634
-154	1806.8473
-153	1734.4052
-152	1857.6535
-151	1733.1206
-150	1828.7283
-149	1723.5143
-148	1837.9785
-147	1717.042
-146	1746.3261
-145	1735.6793
-144	1914.4207
-143	1728.9677
-142	1754.4496
-141	1809.7461
-140	1948.5324
-139	1813.2139
-138	1677.7199
-137	1872.5315
-136	1895.3907
-135	1826.8353
-134	1917.9541
-133	1773.3938
-132	1849.2372
-131	1902.9912
-130	1868.0282
-129	2028.6793
-128	1964.8638
-127	2137.5043
-126	1939.4727
-125	1961.3784
-124	1915.7344
-123	2004.7763
-122	1956.3503
-121	1963.0879
-120	1934.6506
-119	1965.9232
-118	1868.0684
-117	1870.6156
-116	1781.925
-115	1764.6378
-114	1824.9151
-113	1969.9003
-112	1751.196
-111	1891.9541
-110	2038.5964
-109	2019.5637
-108	2016.9872
-107	2047.7153
-106	1916.5781
-105	1983.4291
-104	1785.0336
-103	1961.535
-102	2012.3638
-101	2096.066
-100	2060.3918
-99	2135.1065
-98	2182.6874
-97	2083.8089
-96	2158.1562
-95	2130.7153
-94	2119.9437
-93	2129.1463
-92	2147.9456
-91	2103.415
-90	2102.8449
-89	2089.9127
-88	2088.0822
-87	2096.2065
-86	2069.8721
-85	1909.9798
-84	1938.868
-83	2020.4895
-82	1914.5691
-81	2149.5582
-80	1898.6532
-79	2021.1443
-78	2074.644
-77	1993.7006
-76	1947.9842
-75	2040.7136
-74	2056.7975
-73	2073.235
-72	2036.3966
-71	2028.8985
-70	2268.1826
-69	2294.6237
-68	2308.4242
-67	2444.4015
-66	2551.2881
-65	2508.8848
-64	2437.206
-63	2514.2418
-62	2688.6235
-61	2443.3964
-60	2365.7868
-59	2413.4192
-58	2456.3149
-57	2164.1431
-56	2196.7428
-55	2169.2626
-54	2067.4186
-53	2135.9232
-52	2133.6429
-51	2236.5915
-50	2018.0942
-49	2143.8923
-48	2401.3228
-47	2027.2996
-46	2110.048
-45	2270.1774
-44	2023.9603
-43	2141.051
-42	2370.8
-41	2176.4796
-40	2270.4892
-39	2431.2527
-38	2477.2218
-37	2406.0092
-36	2782.7743
-35	2746.5818
-34	2945.8984
-33	2969.471
-32	3008.8554
-31	2878.8857
-30	3091.2406
-29	3059.9614
-28	2820.8719
-27	2481.9016
-26	2165.9273
-25	2233.485
-24	2295.4283
-23	1980.6063
-22	2160.8392
-21	2301.0695
-20	2293.3916
-19	2377.6454
-18	2520.3585
-17	2448.0596
-16	2424.7336
-15	2631.1351
-14	2615.6209
-13	2835.0643
-12	3084.0126
-11	3176.295
-10	3080.34
-9	3580.7568
-8	3497.1099
-7	3984.7138
-6	4056.2527
-5	4413.8317
-4	5272.6236
-3	5952.7719
-2	5253.2625
-1	6380.5191
0	63679.8283
1	6380.5191
2	5253.2625
3	5952.7719
4	5272.6236
5	4413.8317
6	4056.2527
7	3984.7138
8	3497.1099
9	3580.7568
10	3080.34
11	3176.295
12	3084.0126
13	2835.0643
14	2615.6209
15	2631.1351
16	2424.7336
17	2448.0596
18	2520.3585
19	2377.6454
20	2293.3916
21	2301.0695
22	2160.8392
23	1980.6063
24	2295.4283
25	2233.485
26	2165.9273
27	2481.9016
28	2820.8719
29	3059.9614
30	3091.2406
31	2878.8857
32	3008.8554
33	2969.471
34	2945.8984
35	2746.5818
36	2782.7743
37	2406.0092
38	2477.2218
39	2431.2527
40	2270.4892
41	2176.4796
42	2370.8
43	2141.051
44	2023.9603
45	2270.1774
46	2110.048
47	2027.2996
48	2401.3228
49	2143.8923
50	2018.0942
51	2236.5915
52	2133.6429
53	2135.9232
54	2067.4186
55	2169.2626
56	2196.7428
57	2164.1431
58	2456.3149
59	2413.4192
60	2365.7868
61	2443.3964
62	2688.6235
63	2514.2418
64	2437.206
65	2508.8848
66	2551.2881
67	2444.4015
68	2308.4242
69	2294.6237
70	2268.1826
71	2028.8985
72	2036.3966
73	2073.235
74	2056.7975
75	2040.7136
76	1947.9842
77	1993.7006
78	2074.644
79	2021.1443
80	1898.6532
81	2149.5582
82	1914.5691
83	2020.4895
84	1938.868
85	1909.9798
86	2069.8721
87	2096.2065
88	2088.0822
89	2089.9127
90	2102.8449
91	2103.415
92	2147.9456
93	2129.1463
94	2119.9437
95	2130.7153
96	2158.1562
97	2083.8089
98	2182.6874
99	2135.1065
100	2060.3918
101	2096.066
102	2012.3638
103	1961.535
104	1785.0336
105	1983.4291
106	1916.5781
107	2047.7153
108	2016.9872
109	2019.5637
110	2038.5964
111	1891.9541
112	1751.196
113	1969.9003
114	1824.9151
115	1764.6378
116	1781.925
117	1870.6156
118	1868.0684
119	1965.9232
120	1934.6506
121	1963.0879
122	1956.3503
123	2004.7763
124	1915.7344
125	1961.3784
126	1939.4727
127	2137.5043
128	1964.8638
129	2028.6793
130	1868.0282
131	1902.9912
132	1849.2372
133	1773.3938
134	1917.9541
135	1826.8353
136	1895.3907
137	1872.5315
138	1677.7199
139	1813.2139
140	1948.5324
141	1809.7461
142	1754.4496
143	1728.9677
144	1914.4207
145	1735.6793
146	1746.3261
147	1717.042
148	1837.9785
149	1723.5143
150	1828.7283
151	1733.1206
152	1857.6535
153	1734.4052
154	1806.8473
155	1810.8634
156	1739.5616
157	1741.3224
158	1749.8424
159	1705.7147
160	1610.5772
161	1705.6201
162	1748.6388
163	1647.4926
164	1740.6229
165	1855.8446
166	1758.198
167	1774.1683
168	1766.602
169	1842.4945
170	1734.5228
171	1840.1608
172	1817.8311
173	1824.1389
174	1820.5559
175	1668.9981
176	1939.3409
177	1732.6746
178	1726.4494
179	1714.4899
180	1697.612
181	1773.3148
182	1703.6667
183	1827.8803
184	1755.9755
185	1712.8636
186	1697.1165
187	1752.8739
188	1830.2628
189	1700.8385
190	1617.7744
191	1721.8683
192	1646.7299
193	1614.0289
194	1904.2914
195	1707.2445
196	1691.5603
197	1733.8392
198	1694.5676
199	1757.8205
200	1680.8388
