Position	Value
-200	1112.5957
-199	2345.8638
-198	2402.4314
-197	2380.091
-196	2290.3262
-195	2308.9276
-194	2195.7323
-193	2146.151
-192	2220.5579
-191	2118.9058
-190	2106.1593
-189	2238.2338
-188	2294.9699
-187	2344.211
-186	2400.3937
-185	2272.9529
-184	2254.0107
-183	2286.3868
-182	2169.6898
-181	2213.5916
-180	2329.5126
-179	2274.5123
-178	2308.1248
-177	2375.5517
-176	2476.3414
-175	2462.7636
-174	2324.0579
-173	2277.5396
-172	2225.321
-171	2273.937
-170	2184.8066
-169	2238.3487
-168	2173.0011
-167	2290.0476
-166	2374.8414
-165	2372.6225
-164	2406.5626
-163	2318.0368
-162	2321.6049
-161	2324.6313
-160	2353.1671
-159	2342.6812
-158	2293.0508
-157	2290.9171
-156	2385.5521
-155	2383.0492
-154	2366.5367
-153	2267.2067
-152	2345.4448
-151	2245.1613
-150	2300.8936
-149	2325.2717
-148	2200.688
-147	2249.2531
-146	2395.9083
-145	2486.5353
-144	2490.4472
-143	2456.0374
-142	2388.5759
-141	2350.9379
-140	2377.2268
-139	2260.0846
-138	2343.1826
-137	2362.4434
-136	2292.7121
-135	2459.396
-134	2565.6596
-133	2400.0816
-132	2565.6201
-131	2564.0875
-130	2401.2942
-129	2474.9681
-128	2466.1881
-127	2421.369
-126	2423.7843
-125	2395.7427
-124	2548.3071
-123	2504.6325
-122	2560.8256
-121	2771.6195
-120	2518.1521
-119	2444.4814
-118	2511.8473
-117	2424.4159
-116	2327.6706
-115	2390.9398
-114	2524.3929
-113	2427.9893
-112	2482.9855
-111	2617.3457
-110	2635.3505
-109	2648.866
-108	2691.293
-107	2617.1485
-106	2605.0382
-105	2479.6189
-104	2436.7601
-103	2521.6944
-102	2597.9406
-101	2666.8006
-100	2705.9162
-99	2919.4669
-98	2819.0386
-97	2653.8542
-96	2698.0711
-95	2665.5568
-94	2641.6014
-93	2655.0578
-92	2689.4695
-91	2783.8199
-90	2836.0119
-89	2868.2395
-88	2876.2335
-87	2801.0108
-86	2705.616
-85	2608.0214
-84	2746.2504
-83	2559.0877
-82	2617.1659
-81	2678.9334
-80	2650.3885
-79	2700.7287
-78	2852.1147
-77	2843.5891
-76	2803.0981
-75	2736.4598
-74	2764.1541
-73	2753.6893
-72	2820.9373
-71	2833.4471
-70	2844.8373
-69	3038.5524
-68	2949.3403
-67	3020.1854
-66	3177.7534
-65	3349.2431
-64	3173.8175
-63	3161.6467
-62	3158.826
-61	3241.5623
-60	3133.099
-59	3036.299
-58	3156.7923
-57	3021.8836
-56	3073.8717
-55	3202.3267
-54	3016.9879
-53	3043.0712
-52	2921.2708
-51	2850.7224
-50	2759.6407
-49	2746.8329
-48	2822.2485
-47	2782.3324
-46	2980.5401
-45	3072.0707
-44	2996.3607
-43	3090.6462
-42	3192.2454
-41	3060.0871
-40	3005.6873
-39	3119.2332
-38	3106.0326
-37	3211.9152
-36	3333.2684
-35	3471.3957
-34	3646.4686
-33	3800.8464
-32	3686.5516
-31	3744.1449
-30	3793.6604
-29	3701.628
-28	3571.5185
-27	3631.4627
-26	3410.4437
-25	3153.4867
-24	3094.025
-23	2883.2234
-22	3088.0779
-21	3100.2422
-20	3014.895
-19	3113.5655
-18	3252.7439
-17	3306.9797
-16	3365.758
-15	3789.7907
-14	3815.358
-13	4122.0798
-12	4620.5577
-11	4992.4627
-10	5187.8408
-9	5616.5672
-8	5908.2528
-7	6531.3193
-6	7177.5788
-5	8419.9289
-4	10216.2613
-3	12713.3039
-2	15770.2145
-1	20603.5676
0	200430.3968
1	20603.5676
2	15770.2145
3	12713.3039
4	10216.2613
5	8419.9289
6	7177.5788
7	6531.3193
8	5908.2528
9	5616.5672
10	5187.8408
11	4992.4627
12	4620.5577
13	4122.0798
14	3815.358
15	3789.7907
16	3365.758
17	3306.9797
18	3252.7439
19	3113.5655
20	3014.895
21	3100.2422
22	3088.0779
23	2883.2234
24	3094.025
25	3153.4867
26	3410.4437
27	3631.4627
28	3571.5185
29	3701.628
30	3793.6604
31	3744.1449
32	3686.5516
33	3800.8464
34	3646.4686
35	3471.3957
36	3333.2684
37	3211.9152
38	3106.0326
39	3119.2332
40	3005.6873
41	3060.0871
42	3192.2454
43	3090.6462
44	2996.3607
45	3072.0707
46	2980.5401
47	2782.3324
48	2822.2485
49	2746.8329
50	2759.6407
51	2850.7224
52	2921.2708
53	3043.0712
54	3016.9879
55	3202.3267
56	3073.8717
57	3021.8836
58	3156.7923
59	3036.299
60	3133.099
61	3241.5623
62	3158.826
63	3161.6467
64	3173.8175
65	3349.2431
66	3177.7534
67	3020.1854
68	2949.3403
69	3038.5524
70	2844.8373
71	2833.4471
72	2820.9373
73	2753.6893
74	2764.1541
75	2736.4598
76	2803.0981
77	2843.5891
78	2852.1147
79	2700.7287
80	2650.3885
81	2678.9334
82	2617.1659
83	2559.0877
84	2746.2504
85	2608.0214
86	2705.616
87	2801.0108
88	2876.2335
89	2868.2395
90	2836.0119
91	2783.8199
92	2689.4695
93	2655.0578
94	2641.6014
95	2665.5568
96	2698.0711
97	2653.8542
98	2819.0386
99	2919.4669
100	2705.9162
101	2666.8006
102	2597.9406
103	2521.6944
104	2436.7601
105	2479.6189
106	2605.0382
107	2617.1485
108	2691.293
109	2648.866
110	2635.3505
111	2617.3457
112	2482.9855
113	2427.9893
114	2524.3929
115	2390.9398
116	2327.6706
117	2424.4159
118	2511.8473
119	2444.4814
120	2518.1521
121	2771.6195
122	2560.8256
123	2504.6325
124	2548.3071
125	2395.7427
126	2423.7843
127	2421.369
128	2466.1881
129	2474.9681
130	2401.2942
131	2564.0875
132	2565.6201
133	2400.0816
134	2565.6596
135	2459.396
136	2292.7121
137	2362.4434
138	2343.1826
139	2260.0846
140	2377.2268
141	2350.9379
142	2388.5759
143	2456.0374
144	2490.4472
145	2486.5353
146	2395.9083
147	2249.2531
148	2200.688
149	2325.2717
150	2300.8936
151	2245.1613
152	2345.4448
153	2267.2067
154	2366.5367
155	2383.0492
156	2385.5521
157	2290.9171
158	2293.0508
159	2342.6812
160	2353.1671
161	2324.6313
162	2321.6049
163	2318.0368
164	2406.5626
165	2372.6225
166	2374.8414
167	2290.0476
168	2173.0011
169	2238.3487
170	2184.8066
171	2273.937
172	2225.321
173	2277.5396
174	2324.0579
175	2462.7636
176	2476.3414
177	2375.5517
178	2308.1248
179	2274.5123
180	2329.5126
181	2213.5916
182	2169.6898
183	2286.3868
184	2254.0107
185	2272.9529
186	2400.3937
187	2344.211
188	2294.9699
189	2238.2338
190	2106.1593
191	2118.9058
192	2220.5579
193	2146.151
194	2195.7323
195	2308.9276
196	2290.3262
197	2380.091
198	2402.4314
199	2345.8638
200	1112.5957
