Position	Value
-200	120711.3266
-199	240822.5421
-198	242084.3138
-197	240821.7639
-196	240979.1971
-195	242288.7018
-194	242777.9141
-193	243257.2994
-192	242332.216
-191	242941.5836
-190	243699.3539
-189	244591.4589
-188	246868.6824
-187	243601.1766
-186	245656.61
-185	243956.5883
-184	245652.0671
-183	245374.8589
-182	244394.2542
-181	246196.9846
-180	245846.8045
-179	245110.5673
-178	245339.6643
-177	247997.1868
-176	245919.3509
-175	245469.6687
-174	247914.2139
-173	246134.7078
-172	246310.4275
-171	247543.1953
-170	247363.6098
-169	248591.3947
-168	249880.7524
-167	249853.2157
-166	249248.5985
-165	251844.0964
-164	251198.6947
-163	252891.2352
-162	252201.3295
-161	249820.1292
-160	251058.5861
-159	253283.8876
-158	252461.4397
-157	251203.5911
-156	254072.9264
-155	252254.2354
-154	251047.109
-153	253152.438
-152	253525.3121
-151	253110.6918
-150	252253.9867
-149	251448.4444
-148	252350.3498
-147	252995.1205
-146	252027.7339
-145	253091.6574
-144	252942.8591
-143	253054.5019
-142	252039.4549
-141	251433.2764
-140	252803.8902
-139	252909.6825
-138	253160.9856
-137	252578.0286
-136	255752.7497
-135	256296.5644
-134	254172.7399
-133	253673.8902
-132	257090.3989
-131	256068.3064
-130	259094.3122
-129	258200.0039
-128	256835.8055
-127	257986.5189
-126	259419.6312
-125	257226.4445
-124	256407.9713
-123	257859.2586
-122	257215.3628
-121	255948.0973
-120	259679.181
-119	257476.7287
-118	257609.0703
-117	258822.1021
-116	254465.9844
-115	258048.2026
-114	258625.9605
-113	257409.4922
-112	256682.4663
-111	259846.7036
-110	259097.6784
-109	258528.37
-108	262614.8645
-107	262791.029
-106	260953.2088
-105	262096.7093
-104	260762.4176
-103	263584.079
-102	266884.8672
-101	266290.9131
-100	266343.3966
-99	270410.3622
-98	268185.7502
-97	268002.0529
-96	269954.1377
-95	269558.5193
-94	270476.7858
-93	270110.1901
-92	270977.2278
-91	269080.5204
-90	269315.4644
-89	267907.4822
-88	269854.1213
-87	269963.45
-86	270199.7735
-85	265378.0572
-84	268367.2121
-83	265103.3625
-82	266095.395
-81	268562.9848
-80	265660.1403
-79	267519.0677
-78	267273.9015
-77	269337.9327
-76	269780.3586
-75	271315.9559
-74	269675.2986
-73	271355.4995
-72	272974.0856
-71	272618.1003
-70	277877.1479
-69	278418.3062
-68	280292.1218
-67	282552.127
-66	287685.3305
-65	286547.5504
-64	286088.519
-63	289473.8841
-62	289148.9756
-61	287106.2417
-60	286878.6661
-59	286094.6171
-58	285858.3979
-57	283244.1469
-56	281995.4688
-55	282894.6302
-54	281432.4338
-53	282341.4604
-52	284931.6869
-51	283297.0775
-50	281175.8303
-49	280851.2342
-48	283737.5754
-47	279779.1611
-46	278227.5878
-45	279987.7476
-44	278247.5819
-43	279964.1308
-42	283865.5774
-41	280229.7326
-40	283532.3419
-39	283639.4234
-38	288370.1096
-37	290286.3629
-36	295242.2703
-35	298491.8966
-34	303804.2536
-33	307632.7794
-32	311510.289
-31	312554.7551
-30	311429.434
-29	299102.9774
-28	291138.6997
-27	286538.7552
-26	290029.8856
-25	290645.5371
-24	294180.7307
-23	298416.6696
-22	307298.0056
-21	318978.4468
-20	324009.2525
-19	331080.6259
-18	336138.4966
-17	341926.8866
-16	341903.8011
-15	349849.8954
-14	356970.548
-13	368733.1279
-12	383623.6767
-11	390056.2848
-10	396640.7426
-9	412725.2587
-8	423944.234
-7	445215.2847
-6	458877.7219
-5	489352.2503
-4	527042.3489
-3	580290.9783
-2	568776.3393
-1	595808.1353
0	1872448.0947
1	595808.1353
2	568776.3393
3	580290.9783
4	527042.3489
5	489352.2503
6	458877.7219
7	445215.2847
8	423944.234
9	412725.2587
10	396640.7426
11	390056.2848
12	383623.6767
13	368733.1279
14	356970.548
15	349849.8954
16	341903.8011
17	341926.8866
18	336138.4966
19	331080.6259
20	324009.2525
21	318978.4468
22	307298.0056
23	298416.6696
24	294180.7307
25	290645.5371
26	290029.8856
27	286538.7552
28	291138.6997
29	299102.9774
30	311429.434
31	312554.7551
32	311510.289
33	307632.7794
34	303804.2536
35	298491.8966
36	295242.2703
37	290286.3629
38	288370.1096
39	283639.4234
40	283532.3419
41	280229.7326
42	283865.5774
43	279964.1308
44	278247.5819
45	279987.7476
46	278227.5878
47	279779.1611
48	283737.5754
49	280851.2342
50	281175.8303
51	283297.0775
52	284931.6869
53	282341.4604
54	281432.4338
55	282894.6302
56	281995.4688
57	283244.1469
58	285858.3979
59	286094.6171
60	286878.6661
61	287106.2417
62	289148.9756
63	289473.8841
64	286088.519
65	286547.5504
66	287685.3305
67	282552.127
68	280292.1218
69	278418.3062
70	277877.1479
71	272618.1003
72	272974.0856
73	271355.4995
74	269675.2986
75	271315.9559
76	269780.3586
77	269337.9327
78	267273.9015
79	267519.0677
80	265660.1403
81	268562.9848
82	266095.395
83	265103.3625
84	268367.2121
85	265378.0572
86	270199.7735
87	269963.45
88	269854.1213
89	267907.4822
90	269315.4644
91	269080.5204
92	270977.2278
93	270110.1901
94	270476.7858
95	269558.5193
96	269954.1377
97	268002.0529
98	268185.7502
99	270410.3622
100	266343.3966
101	266290.9131
102	266884.8672
103	263584.079
104	260762.4176
105	262096.7093
106	260953.2088
107	262791.029
108	262614.8645
109	258528.37
110	259097.6784
111	259846.7036
112	256682.4663
113	257409.4922
114	258625.9605
115	258048.2026
116	254465.9844
117	258822.1021
118	257609.0703
119	257476.7287
120	259679.181
121	255948.0973
122	257215.3628
123	257859.2586
124	256407.9713
125	257226.4445
126	259419.6312
127	257986.5189
128	256835.8055
129	258200.0039
130	259094.3122
131	256068.3064
132	257090.3989
133	253673.8902
134	254172.7399
135	256296.5644
136	255752.7497
137	252578.0286
138	253160.9856
139	252909.6825
140	252803.8902
141	251433.2764
142	252039.4549
143	253054.5019
144	252942.8591
145	253091.6574
146	252027.7339
147	252995.1205
148	252350.3498
149	251448.4444
150	252253.9867
151	253110.6918
152	253525.3121
153	253152.438
154	251047.109
155	252254.2354
156	254072.9264
157	251203.5911
158	252461.4397
159	253283.8876
160	251058.5861
161	249820.1292
162	252201.3295
163	252891.2352
164	251198.6947
165	251844.0964
166	249248.5985
167	249853.2157
168	249880.7524
169	248591.3947
170	247363.6098
171	247543.1953
172	246310.4275
173	246134.7078
174	247914.2139
175	245469.6687
176	245919.3509
177	247997.1868
178	245339.6643
179	245110.5673
180	245846.8045
181	246196.9846
182	244394.2542
183	245374.8589
184	245652.0671
185	243956.5883
186	245656.61
187	243601.1766
188	246868.6824
189	244591.4589
190	243699.3539
191	242941.5836
192	242332.216
193	243257.2994
194	242777.9141
195	242288.7018
196	240979.1971
197	240821.7639
198	242084.3138
199	240822.5421
200	120711.3266
