Position	Value
-200	1752.8856
-199	3597.4537
-198	3526.2169
-197	3714.4723
-196	3524.9248
-195	3778.8673
-194	3756.1555
-193	3692.4834
-192	3638.4051
-191	3726.7338
-190	3762.9379
-189	3686.7507
-188	3749.1275
-187	3562.689
-186	3348.3302
-185	3575.4736
-184	3778.2389
-183	3770.1154
-182	3431.0636
-181	3873.8755
-180	3746.7327
-179	3619.6204
-178	3439.9413
-177	3622.9321
-176	3745.8226
-175	3705.6823
-174	3662.6762
-173	3652.9161
-172	3648.3954
-171	3687.0986
-170	3820.8665
-169	4166.6639
-168	3650.4924
-167	4005.8184
-166	3844.6305
-165	3706.9312
-164	3840.3643
-163	3808.2127
-162	3879.3658
-161	3882.0682
-160	4069.5974
-159	3903.9956
-158	3890.0394
-157	3719.2771
-156	3878.8098
-155	3855.2118
-154	3742.3156
-153	3899.0536
-152	3875.5685
-151	3805.3656
-150	3582.6481
-149	3884.0141
-148	3906.5097
-147	3794.5192
-146	3768.0263
-145	3988.8299
-144	4031.1979
-143	4096.8288
-142	3912.2633
-141	3910.6951
-140	3850.4068
-139	3903.6344
-138	3872.6252
-137	3788.6636
-136	3874.5953
-135	4041.8252
-134	4040.4357
-133	3772.6607
-132	3822.4085
-131	4048.1894
-130	3915.519
-129	4150.4572
-128	4021.2533
-127	4137.6965
-126	4136.7372
-125	3930.2932
-124	3979.364
-123	3847.8714
-122	3835.286
-121	3640.9738
-120	3817.2633
-119	3904.9987
-118	3660.1773
-117	3790.996
-116	3503.627
-115	3950.6627
-114	3945.2373
-113	4013.9687
-112	3649.2135
-111	4064.0893
-110	3973.2672
-109	4007.0612
-108	4093.2572
-107	4214.8829
-106	3834.3809
-105	4124.7992
-104	3883.2532
-103	3779.9156
-102	4056.1462
-101	4076.0694
-100	4116.1425
-99	4229.9605
-98	4328.0338
-97	4112.9052
-96	4532.3703
-95	4350.7953
-94	4145.1368
-93	4195.5937
-92	4200.7337
-91	4283.9556
-90	4253.7628
-89	4282.1398
-88	4308.0219
-87	4310.8479
-86	4299.8387
-85	3922.2694
-84	4291.241
-83	3833.777
-82	3922.1885
-81	4295.1185
-80	4125.107
-79	4211.9007
-78	3820.5278
-77	4073.5062
-76	4215.4538
-75	3988.9599
-74	3953.1756
-73	4146.7818
-72	4295.7986
-71	4379.1638
-70	4498.1856
-69	4900.525
-68	4487.1042
-67	4527.6876
-66	4864.4487
-65	4765.1088
-64	4719.8947
-63	5154.6524
-62	4955.1843
-61	4815.5628
-60	4670.3872
-59	4794.0974
-58	4829.1643
-57	4415.6748
-56	4659.7815
-55	4476.9386
-54	4376.0038
-53	4654.2793
-52	4656.071
-51	4634.8878
-50	4308.7815
-49	4491.513
-48	4571.3591
-47	4373.4947
-46	4454.2618
-45	4331.3866
-44	4303.9758
-43	4407.0279
-42	4537.1734
-41	4594.8577
-40	4591.3927
-39	4738.9398
-38	4648.8363
-37	4891.0885
-36	5220.0031
-35	5096.2681
-34	5394.523
-33	5278.2613
-32	5550.0467
-31	5414.7369
-30	5703.1148
-29	5547.6358
-28	5163.3061
-27	4612.8005
-26	4374.7331
-25	4381.4725
-24	4533.6034
-23	4704.1399
-22	4709.4267
-21	5178.2977
-20	5304.8657
-19	5429.2093
-18	5554.2618
-17	5500.7588
-16	5423.1868
-15	5491.2624
-14	5908.6824
-13	6118.8552
-12	6416.386
-11	6914.9476
-10	6734.4359
-9	7432.2437
-8	7604.9839
-7	8636.9828
-6	8411.1506
-5	9546.1045
-4	11428.0435
-3	13178.7536
-2	11962.2504
-1	13639.7321
0	104050.7316
1	13639.7321
2	11962.2504
3	13178.7536
4	11428.0435
5	9546.1045
6	8411.1506
7	8636.9828
8	7604.9839
9	7432.2437
10	6734.4359
11	6914.9476
12	6416.386
13	6118.8552
14	5908.6824
15	5491.2624
16	5423.1868
17	5500.7588
18	5554.2618
19	5429.2093
20	5304.8657
21	5178.2977
22	4709.4267
23	4704.1399
24	4533.6034
25	4381.4725
26	4374.7331
27	4612.8005
28	5163.3061
29	5547.6358
30	5703.1148
31	5414.7369
32	5550.0467
33	5278.2613
34	5394.523
35	5096.2681
36	5220.0031
37	4891.0885
38	4648.8363
39	4738.9398
40	4591.3927
41	4594.8577
42	4537.1734
43	4407.0279
44	4303.9758
45	4331.3866
46	4454.2618
47	4373.4947
48	4571.3591
49	4491.513
50	4308.7815
51	4634.8878
52	4656.071
53	4654.2793
54	4376.0038
55	4476.9386
56	4659.7815
57	4415.6748
58	4829.1643
59	4794.0974
60	4670.3872
61	4815.5628
62	4955.1843
63	5154.6524
64	4719.8947
65	4765.1088
66	4864.4487
67	4527.6876
68	4487.1042
69	4900.525
70	4498.1856
71	4379.1638
72	4295.7986
73	4146.7818
74	3953.1756
75	3988.9599
76	4215.4538
77	4073.5062
78	3820.5278
79	4211.9007
80	4125.107
81	4295.1185
82	3922.1885
83	3833.777
84	4291.241
85	3922.2694
86	4299.8387
87	4310.8479
88	4308.0219
89	4282.1398
90	4253.7628
91	4283.9556
92	4200.7337
93	4195.5937
94	4145.1368
95	4350.7953
96	4532.3703
97	4112.9052
98	4328.0338
99	4229.9605
100	4116.1425
101	4076.0694
102	4056.1462
103	3779.9156
104	3883.2532
105	4124.7992
106	3834.3809
107	4214.8829
108	4093.2572
109	4007.0612
110	3973.2672
111	4064.0893
112	3649.2135
113	4013.9687
114	3945.2373
115	3950.6627
116	3503.627
117	3790.996
118	3660.1773
119	3904.9987
120	3817.2633
121	3640.9738
122	3835.286
123	3847.8714
124	3979.364
125	3930.2932
126	4136.7372
127	4137.6965
128	4021.2533
129	4150.4572
130	3915.519
131	4048.1894
132	3822.4085
133	3772.6607
134	4040.4357
135	4041.8252
136	3874.5953
137	3788.6636
138	3872.6252
139	3903.6344
140	3850.4068
141	3910.6951
142	3912.2633
143	4096.8288
144	4031.1979
145	3988.8299
146	3768.0263
147	3794.5192
148	3906.5097
149	3884.0141
150	3582.6481
151	3805.3656
152	3875.5685
153	3899.0536
154	3742.3156
155	3855.2118
156	3878.8098
157	3719.2771
158	3890.0394
159	3903.9956
160	4069.5974
161	3882.0682
162	3879.3658
163	3808.2127
164	3840.3643
165	3706.9312
166	3844.6305
167	4005.8184
168	3650.4924
169	4166.6639
170	3820.8665
171	3687.0986
172	3648.3954
173	3652.9161
174	3662.6762
175	3705.6823
176	3745.8226
177	3622.9321
178	3439.9413
179	3619.6204
180	3746.7327
181	3873.8755
182	3431.0636
183	3770.1154
184	3778.2389
185	3575.4736
186	3348.3302
187	3562.689
188	3749.1275
189	3686.7507
190	3762.9379
191	3726.7338
192	3638.4051
193	3692.4834
194	3756.1555
195	3778.8673
196	3524.9248
197	3714.4723
198	3526.2169
199	3597.4537
200	1752.8856
