Position	Value
-200	32842.8869
-199	66993.4651
-198	67185.5764
-197	66959.6469
-196	66974.8882
-195	68585.6889
-194	67523.1052
-193	68284.7677
-192	68149.9859
-191	68163.0272
-190	68728.9012
-189	69123.7497
-188	69079.6156
-187	69070.6726
-186	69818.7049
-185	68926.1805
-184	69815.1557
-183	69241.6427
-182	69232.0888
-181	69600.574
-180	68884.9318
-179	68288.7943
-178	68971.0174
-177	68500.4945
-176	68500.0281
-175	68527.4534
-174	68310.5845
-173	68202.5526
-172	67756.8907
-171	68693.4366
-170	67252.1431
-169	68192.2511
-168	68088.806
-167	68646.1627
-166	68791.7619
-165	69970.0528
-164	69358.8397
-163	69277.0723
-162	69767.5301
-161	69132.4335
-160	70366.813
-159	70806.1223
-158	71557.1897
-157	71188.7219
-156	72340.4157
-155	71399.629
-154	71463.6727
-153	70548.7307
-152	71212.0335
-151	70324.4115
-150	69565.5266
-149	70262.1892
-148	69462.0743
-147	69897.109
-146	69233.6271
-145	69710.5957
-144	71220.5808
-143	70752.9846
-142	70294.9733
-141	70020.9491
-140	70229.3437
-139	70115.4885
-138	70244.2803
-137	70115.2364
-136	70684.3435
-135	71578.4923
-134	72193.3833
-133	72075.2311
-132	74256.5961
-131	73471.4694
-130	74227.4452
-129	74600.3035
-128	74286.8984
-127	73578.9574
-126	75640.9432
-125	74614.4105
-124	76143.7063
-123	76604.8027
-122	76434.5374
-121	75701.8437
-120	75996.4134
-119	74920.3877
-118	75153.2278
-117	74592.814
-116	72885.9253
-115	72682.8985
-114	73498.73
-113	73836.8156
-112	73749.6473
-111	73758.7582
-110	73932.1769
-109	72476.893
-108	73574.9403
-107	73610.8486
-106	72820.5183
-105	73643.5546
-104	73746.0289
-103	74210.1584
-102	75558.5331
-101	75153.2591
-100	76306.6197
-99	78540.2656
-98	78519.4336
-97	78519.7526
-96	79081.581
-95	79057.0067
-94	79490.4211
-93	80019.9802
-92	80023.3244
-91	79971.7214
-90	79443.5559
-89	79278.0329
-88	79128.284
-87	78414.7026
-86	76685.4641
-85	76130.3023
-84	76167.2998
-83	75408.1764
-82	74787.9069
-81	75742.025
-80	74938.9592
-79	75995.8349
-78	76739.7693
-77	76581.3811
-76	76340.6625
-75	76715.1276
-74	76032.3117
-73	77447.5602
-72	78839.6121
-71	78654.8954
-70	80478.3295
-69	82367.6901
-68	82897.106
-67	83989.8125
-66	86578.3685
-65	87167.65
-64	87787.8305
-63	89999.4611
-62	88928.4746
-61	88979.6103
-60	88263.5612
-59	89871.5535
-58	86956.121
-57	85570.881
-56	83939.5287
-55	83078.9509
-54	81659.8446
-53	79921.1732
-52	79536.2928
-51	80237.4965
-50	78771.815
-49	79042.0494
-48	79597.6757
-47	79246.1011
-46	79329.244
-45	80592.9585
-44	80607.8374
-43	81048.6329
-42	83521.6684
-41	82354.6584
-40	83351.0584
-39	86546.9428
-38	86745.0851
-37	88249.1362
-36	92092.856
-35	93984.1238
-34	97214.872
-33	100963.3256
-32	100717.3931
-31	102356.7107
-30	106092.9697
-29	102224.2989
-28	99376.2098
-27	93450.8278
-26	85810.2619
-25	81231.0912
-24	81289.1154
-23	80824.5956
-22	79930.815
-21	83311.7034
-20	82454.1032
-19	83268.5772
-18	85534.2364
-17	86824.5852
-16	88117.2439
-15	89864.2364
-14	90730.3731
-13	96508.2736
-12	104209.792
-11	109011.0067
-10	113933.7746
-9	120807.7991
-8	127635.5765
-7	140982.4119
-6	153828.3181
-5	171918.5529
-4	191929.9963
-3	221523.8396
-2	245815.5574
-1	257559.7865
0	2085424.7776
1	257559.7865
2	245815.5574
3	221523.8396
4	191929.9963
5	171918.5529
6	153828.3181
7	140982.4119
8	127635.5765
9	120807.7991
10	113933.7746
11	109011.0067
12	104209.792
13	96508.2736
14	90730.3731
15	89864.2364
16	88117.2439
17	86824.5852
18	85534.2364
19	83268.5772
20	82454.1032
21	83311.7034
22	79930.815
23	80824.5956
24	81289.1154
25	81231.0912
26	85810.2619
27	93450.8278
28	99376.2098
29	102224.2989
30	106092.9697
31	102356.7107
32	100717.3931
33	100963.3256
34	97214.872
35	93984.1238
36	92092.856
37	88249.1362
38	86745.0851
39	86546.9428
40	83351.0584
41	82354.6584
42	83521.6684
43	81048.6328
44	80607.8374
45	80592.9585
46	79329.244
47	79246.1011
48	79597.6757
49	79042.0494
50	78771.815
51	80237.4965
52	79536.2928
53	79921.1732
54	81659.8446
55	83078.9509
56	83939.5287
57	85570.881
58	86956.121
59	89871.5535
60	88263.5612
61	88979.6103
62	88928.4746
63	89999.4611
64	87787.8305
65	87167.65
66	86578.3685
67	83989.8125
68	82897.106
69	82367.6901
70	80478.3295
71	78654.8954
72	78839.6121
73	77447.5602
74	76032.3117
75	76715.1276
76	76340.6625
77	76581.3811
78	76739.7693
79	75995.8349
80	74938.9592
81	75742.025
82	74787.9069
83	75408.1764
84	76167.2998
85	76130.3023
86	76685.4641
87	78414.7026
88	79128.284
89	79278.0329
90	79443.5559
91	79971.7214
92	80023.3244
93	80019.9802
94	79490.4211
95	79057.0067
96	79081.581
97	78519.7526
98	78519.4336
99	78540.2656
100	76306.6197
101	75153.2591
102	75558.5331
103	74210.1584
104	73746.0289
105	73643.5546
106	72820.5183
107	73610.8486
108	73574.9403
109	72476.893
110	73932.1769
111	73758.7582
112	73749.6473
113	73836.8156
114	73498.73
115	72682.8985
116	72885.9253
117	74592.814
118	75153.2278
119	74920.3877
120	75996.4134
121	75701.8437
122	76434.5374
123	76604.8027
124	76143.7063
125	74614.4105
126	75640.9432
127	73578.9574
128	74286.8984
129	74600.3035
130	74227.4452
131	73471.4694
132	74256.5961
133	72075.2311
134	72193.3833
135	71578.4923
136	70684.3435
137	70115.2364
138	70244.2803
139	70115.4885
140	70229.3437
141	70020.9491
142	70294.9733
143	70752.9846
144	71220.5808
145	69710.5957
146	69233.6271
147	69897.109
148	69462.0743
149	70262.1892
150	69565.5266
151	70324.4115
152	71212.0335
153	70548.7307
154	71463.6727
155	71399.629
156	72340.4157
157	71188.7219
158	71557.1897
159	70806.1223
160	70366.813
161	69132.4335
162	69767.5301
163	69277.0723
164	69358.8397
165	69970.0528
166	68791.7619
167	68646.1627
168	68088.806
169	68192.2511
170	67252.1431
171	68693.4366
172	67756.8907
173	68202.5526
174	68310.5845
175	68527.4534
176	68500.0281
177	68500.4945
178	68971.0174
179	68288.7943
180	68884.9318
181	69600.574
182	69232.0888
183	69241.6427
184	69815.1557
185	68926.1805
186	69818.7049
187	69070.6726
188	69079.6156
189	69123.7497
190	68728.9012
191	68163.0272
192	68149.9859
193	68284.7677
194	67523.1052
195	68585.6889
196	66974.8882
197	66959.6469
198	67185.5764
199	66993.4651
200	32842.8869
