Position	Value
-200	76564.0974
-199	153657.0168
-198	154190.6526
-197	153790.2373
-196	153868.0361
-195	155020.7239
-194	155594.7792
-193	155169.816
-192	155923.1114
-191	156210.9599
-190	154938.2955
-189	156450.322
-188	158059.6737
-187	155886.8232
-186	155385.1102
-185	155553.2056
-184	156637.4443
-183	156486.0176
-182	155106.2156
-181	156525.5878
-180	154909.8278
-179	155333.4313
-178	155779.2043
-177	158046.8912
-176	156127.845
-175	154991.77
-174	157228.3509
-173	156551.0899
-172	156227.7491
-171	157565.1362
-170	156750.1446
-169	157945.7573
-168	159098.5894
-167	158695.5095
-166	158229.1113
-165	158968.2098
-164	158212.7646
-163	159999.2288
-162	159483.7075
-161	158488.5416
-160	160036.7364
-159	158909.4345
-158	158887.2745
-157	159423.0967
-156	160928.527
-155	159461.3277
-154	159419.8123
-153	159319.7726
-152	160624.135
-151	159664.464
-150	159301.7484
-149	159306.8372
-148	159696.4036
-147	159189.6075
-146	158308.9769
-145	159050.3042
-144	159765.7173
-143	160351.8519
-142	159185.5218
-141	158865.8662
-140	159162.2436
-139	159459.1397
-138	159108.0894
-137	160390.998
-136	161543.5815
-135	162323.5604
-134	160782.6342
-133	160453.9983
-132	163272.0431
-131	162489.6937
-130	164355.9496
-129	164537.4431
-128	163768.3703
-127	164028.1334
-126	164811.733
-125	163725.5592
-124	163289.9432
-123	164674.0457
-122	163168.6054
-121	161878.0374
-120	164910.4045
-119	163487.1028
-118	163180.8997
-117	163728.6565
-116	160844.4187
-115	162350.1477
-114	163811.2015
-113	162727.5992
-112	161832.9376
-111	164052.3793
-110	163639.0291
-109	163273.355
-108	164619.1499
-107	164178.6605
-106	163471.0694
-105	164641.048
-104	163649.6006
-103	164713.1045
-102	167039.2929
-101	166630.6654
-100	168327.5513
-99	168439.7983
-98	168969.297
-97	169059.9686
-96	170898.8803
-95	169289.2013
-94	170566.1471
-93	170918.8558
-92	169907.0479
-91	169465.3622
-90	169252.9776
-89	169266.2759
-88	169948.977
-87	169783.1299
-86	168959.521
-85	166456.7971
-84	168979.6127
-83	165016.7602
-82	167185.8951
-81	168146.1046
-80	166893.3386
-79	167537.4199
-78	167512.238
-77	168006.7363
-76	168371.8018
-75	168903.0174
-74	167210.3257
-73	169303.8784
-72	169584.3517
-71	171008.1207
-70	172082.1224
-69	175028.8236
-68	175248.6174
-67	175362.3904
-66	179907.2909
-65	179435.6573
-64	179266.0306
-63	182316.3073
-62	181562.8776
-61	180890.7994
-60	181422.0685
-59	180070.239
-58	180910.519
-57	178937.6257
-56	177927.0671
-55	178086.7269
-54	176488.3801
-53	176692.755
-52	177696.3222
-51	177314.6013
-50	175301.0805
-49	175870.7666
-48	177090.8426
-47	175116.6746
-46	174498.7403
-45	175785.9682
-44	174968.4242
-43	174403.8923
-42	177360.7776
-41	175514.4063
-40	176811.4766
-39	177582.2262
-38	179601.8024
-37	180689.6566
-36	184538.5293
-35	185311.6852
-34	188370.0253
-33	190926.2245
-32	193165.7722
-31	193764.0862
-30	196553.9773
-29	190732.8048
-28	185260.0288
-27	181381.7708
-26	180836.6192
-25	178233.8912
-24	178486.7065
-23	180438.7085
-22	186636.7999
-21	195453.7224
-20	200093.8526
-19	203155.7658
-18	207427.6656
-17	211075.5128
-16	211377.618
-15	217098.578
-14	220949.4323
-13	227161.6914
-12	237406.986
-11	242097.8147
-10	246509.824
-9	255694.2606
-8	261893.247
-7	274767.2323
-6	285292.8331
-5	304414.6896
-4	336507.3448
-3	376394.4627
-2	373780.447
-1	399286.9502
0	1335622.8039
1	399286.9502
2	373780.447
3	376394.4627
4	336507.3448
5	304414.6896
6	285292.8331
7	274767.2323
8	261893.247
9	255694.2606
10	246509.824
11	242097.8147
12	237406.986
13	227161.6914
14	220949.4323
15	217098.578
16	211377.618
17	211075.5128
18	207427.6656
19	203155.7658
20	200093.8526
21	195453.7224
22	186636.7999
23	180438.7085
24	178486.7065
25	178233.8912
26	180836.6192
27	181381.7708
28	185260.0288
29	190732.8048
30	196553.9773
31	193764.0862
32	193165.7722
33	190926.2245
34	188370.0253
35	185311.6852
36	184538.5293
37	180689.6566
38	179601.8024
39	177582.2262
40	176811.4766
41	175514.4063
42	177360.7776
43	174403.8923
44	174968.4242
45	175785.9682
46	174498.7403
47	175116.6746
48	177090.8426
49	175870.7666
50	175301.0805
51	177314.6013
52	177696.3222
53	176692.755
54	176488.3801
55	178086.7269
56	177927.0671
57	178937.6257
58	180910.519
59	180070.239
60	181422.0685
61	180890.7994
62	181562.8776
63	182316.3073
64	179266.0306
65	179435.6573
66	179907.2909
67	175362.3904
68	175248.6174
69	175028.8236
70	172082.1224
71	171008.1207
72	169584.3517
73	169303.8784
74	167210.3257
75	168903.0174
76	168371.8018
77	168006.7363
78	167512.238
79	167537.4199
80	166893.3386
81	168146.1046
82	167185.8951
83	165016.7602
84	168979.6127
85	166456.7971
86	168959.521
87	169783.1299
88	169948.977
89	169266.2759
90	169252.9776
91	169465.3622
92	169907.0479
93	170918.8558
94	170566.1471
95	169289.2013
96	170898.8803
97	169059.9686
98	168969.297
99	168439.7983
100	168327.5513
101	166630.6654
102	167039.2929
103	164713.1045
104	163649.6006
105	164641.048
106	163471.0694
107	164178.6605
108	164619.1499
109	163273.355
110	163639.0291
111	164052.3793
112	161832.9376
113	162727.5992
114	163811.2015
115	162350.1477
116	160844.4187
117	163728.6565
118	163180.8997
119	163487.1028
120	164910.4045
121	161878.0374
122	163168.6054
123	164674.0457
124	163289.9432
125	163725.5592
126	164811.733
127	164028.1334
128	163768.3703
129	164537.4431
130	164355.9496
131	162489.6937
132	163272.0431
133	160453.9983
134	160782.6342
135	162323.5604
136	161543.5815
137	160390.998
138	159108.0894
139	159459.1397
140	159162.2436
141	158865.8662
142	159185.5218
143	160351.8519
144	159765.7173
145	159050.3042
146	158308.9769
147	159189.6075
148	159696.4036
149	159306.8372
150	159301.7484
151	159664.464
152	160624.135
153	159319.7726
154	159419.8123
155	159461.3277
156	160928.527
157	159423.0967
158	158887.2745
159	158909.4345
160	160036.7364
161	158488.5416
162	159483.7075
163	159999.2288
164	158212.7646
165	158968.2098
166	158229.1113
167	158695.5095
168	159098.5894
169	157945.7573
170	156750.1446
171	157565.1362
172	156227.7491
173	156551.0899
174	157228.3509
175	154991.77
176	156127.845
177	158046.8912
178	155779.2043
179	155333.4313
180	154909.8278
181	156525.5878
182	155106.2156
183	156486.0176
184	156637.4443
185	155553.2056
186	155385.1102
187	155886.8232
188	158059.6737
189	156450.322
190	154938.2955
191	156210.9599
192	155923.1114
193	155169.816
194	155594.7792
195	155020.7239
196	153868.0361
197	153790.2373
198	154190.6526
199	153657.0168
200	76564.0974
