Position	Value
-200	42181.2932
-199	83933.8255
-198	84693.1431
-197	84871.343
-196	84180.4054
-195	85113.4992
-194	85811.3595
-193	86510.8046
-192	86087.0702
-191	86613.2454
-190	86435.1081
-189	86739.6034
-188	86820.3003
-187	86300.2733
-186	85752.855
-185	86839.6605
-184	87106.4013
-183	86954.5881
-182	85984.8783
-181	87403.8417
-180	87150.3218
-179	86277.2268
-178	86600.5724
-177	87175.4149
-176	87002.0806
-175	86476.0169
-174	87787.7299
-173	86846.6385
-172	87240.9248
-171	87323.7177
-170	87380.3297
-169	87817.1082
-168	87752.6672
-167	87508.4393
-166	86822.1357
-165	87232.3598
-164	86979.7864
-163	87942.0444
-162	88328.0979
-161	87206.4079
-160	87112.0044
-159	88594.7885
-158	88325.8729
-157	87322.727
-156	88569.5065
-155	88209.7752
-154	87428.9377
-153	87516.5736
-152	88662.3135
-151	88412.6711
-150	87932.3959
-149	87503.0798
-148	87946.864
-147	87929.5391
-146	87532.5956
-145	88043.9138
-144	88551.9665
-143	87643.7263
-142	87161.1622
-141	87463.968
-140	88095.8743
-139	88133.2307
-138	88141.0183
-137	88560.3222
-136	89030.1976
-135	89436.7654
-134	88947.0698
-133	88540.3393
-132	90345.1237
-131	90049.6023
-130	91723.9582
-129	91253.49
-128	90259.3977
-127	91211.3804
-126	91932.285
-125	91113.5483
-124	91130.2121
-123	90928.9104
-122	90518.4766
-121	90483.2696
-120	90691.5596
-119	90309.8134
-118	90783.7245
-117	89620.4851
-116	89121.6894
-115	89446.8754
-114	89942.8746
-113	90304.5246
-112	88854.2248
-111	90080.8601
-110	90279.188
-109	89776.4312
-108	90706.9889
-107	90423.1263
-106	90992.2061
-105	90132.0978
-104	90040.7681
-103	90293.389
-102	91186.8644
-101	92058.1868
-100	92224.9171
-99	92751.4145
-98	93178.528
-97	92363.2088
-96	93534.4906
-95	93868.3138
-94	93981.0688
-93	94627.1527
-92	93777.7716
-91	93942.2629
-90	93231.03
-89	93181.2495
-88	93547.4481
-87	93923.5241
-86	92799.5635
-85	91329.2142
-84	92320.1737
-83	90949.6612
-82	92206.0813
-81	92847.574
-80	92712.3223
-79	92521.9219
-78	92458.1987
-77	93743.9422
-76	93132.4758
-75	93861.5256
-74	92487.2886
-73	93592.054
-72	94463.6367
-71	94454.545
-70	95291.7613
-69	95768.5204
-68	96268.4438
-67	96034.3789
-66	98406.6733
-65	98566.5309
-64	98432.6548
-63	99301.1537
-62	99791.2074
-61	99422.8542
-60	99336.0855
-59	100177.511
-58	99888.4685
-57	97686.9028
-56	96710.8421
-55	96485.6294
-54	96049.6459
-53	96179.4244
-52	97413.1674
-51	97058.5266
-50	96132.3589
-49	96024.7409
-48	97226.2578
-47	96095.0386
-46	95843.3585
-45	96788.5297
-44	95127.2286
-43	95946.6573
-42	97180.7595
-41	96400.87
-40	97128.9601
-39	97269.6594
-38	98054.3392
-37	98329.249
-36	100315.8466
-35	101269.1116
-34	102314.8793
-33	104912.5299
-32	104380.1964
-31	103908.0325
-30	110994.8007
-29	107829.069
-28	102517.9018
-27	97400.4166
-26	97890.0607
-25	96876.0001
-24	97975.4513
-23	99967.4651
-22	102583.8226
-21	106295.0616
-20	109271.2371
-19	111359.1182
-18	112445.1812
-17	114361.6372
-16	113871.3611
-15	115129.4977
-14	117362.2256
-13	121374.0114
-12	126429.5634
-11	128842.0432
-10	130714.5157
-9	136984.421
-8	138231.1215
-7	145152.704
-6	149886.3699
-5	163204.1969
-4	178620.2501
-3	197290.894
-2	198087.5815
-1	210172.5429
0	795601.3437
1	210172.5429
2	198087.5815
3	197290.894
4	178620.2501
5	163204.1969
6	149886.3699
7	145152.704
8	138231.1215
9	136984.421
10	130714.5157
11	128842.0432
12	126429.5634
13	121374.0114
14	117362.2256
15	115129.4977
16	113871.3611
17	114361.6372
18	112445.1812
19	111359.1182
20	109271.2371
21	106295.0616
22	102583.8226
23	99967.4651
24	97975.4513
25	96876.0001
26	97890.0607
27	97400.4166
28	102517.9018
29	107829.069
30	110994.8007
31	103908.0325
32	104380.1964
33	104912.5299
34	102314.8793
35	101269.1116
36	100315.8466
37	98329.249
38	98054.3392
39	97269.6594
40	97128.9601
41	96400.87
42	97180.7595
43	95946.6573
44	95127.2286
45	96788.5297
46	95843.3585
47	96095.0386
48	97226.2578
49	96024.7409
50	96132.3589
51	97058.5266
52	97413.1674
53	96179.4244
54	96049.6459
55	96485.6294
56	96710.8421
57	97686.9028
58	99888.4685
59	100177.511
60	99336.0855
61	99422.8542
62	99791.2074
63	99301.1537
64	98432.6548
65	98566.5309
66	98406.6733
67	96034.3789
68	96268.4438
69	95768.5204
70	95291.7613
71	94454.545
72	94463.6367
73	93592.054
74	92487.2886
75	93861.5256
76	93132.4758
77	93743.9422
78	92458.1987
79	92521.9219
80	92712.3223
81	92847.574
82	92206.0813
83	90949.6612
84	92320.1737
85	91329.2142
86	92799.5635
87	93923.5241
88	93547.4481
89	93181.2495
90	93231.03
91	93942.2629
92	93777.7716
93	94627.1527
94	93981.0688
95	93868.3138
96	93534.4906
97	92363.2088
98	93178.528
99	92751.4145
100	92224.9171
101	92058.1868
102	91186.8644
103	90293.389
104	90040.7681
105	90132.0978
106	90992.2061
107	90423.1263
108	90706.9889
109	89776.4312
110	90279.188
111	90080.8601
112	88854.2248
113	90304.5246
114	89942.8746
115	89446.8754
116	89121.6894
117	89620.4851
118	90783.7245
119	90309.8134
120	90691.5596
121	90483.2696
122	90518.4766
123	90928.9104
124	91130.2121
125	91113.5483
126	91932.285
127	91211.3804
128	90259.3977
129	91253.49
130	91723.9582
131	90049.6023
132	90345.1237
133	88540.3393
134	88947.0698
135	89436.7654
136	89030.1976
137	88560.3222
138	88141.0183
139	88133.2307
140	88095.8743
141	87463.968
142	87161.1622
143	87643.7263
144	88551.9665
145	88043.9138
146	87532.5956
147	87929.5391
148	87946.864
149	87503.0798
150	87932.3959
151	88412.6711
152	88662.3135
153	87516.5736
154	87428.9377
155	88209.7752
156	88569.5065
157	87322.727
158	88325.8729
159	88594.7885
160	87112.0044
161	87206.4079
162	88328.0979
163	87942.0444
164	86979.7864
165	87232.3598
166	86822.1357
167	87508.4393
168	87752.6672
169	87817.1082
170	87380.3297
171	87323.7177
172	87240.9248
173	86846.6385
174	87787.7299
175	86476.0169
176	87002.0806
177	87175.4149
178	86600.5724
179	86277.2268
180	87150.3218
181	87403.8417
182	85984.8783
183	86954.5881
184	87106.4013
185	86839.6605
186	85752.855
187	86300.2733
188	86820.3003
189	86739.6034
190	86435.1081
191	86613.2454
192	86087.0702
193	86510.8046
194	85811.3595
195	85113.4992
196	84180.4054
197	84871.343
198	84693.1431
199	83933.8255
200	42181.2932
