Position	Value
-200	1327.4094
-199	2635.8859
-198	2691.0129
-197	2630.0139
-196	2524.1707
-195	2639.4548
-194	2535.9765
-193	2704.9661
-192	2638.601
-191	2632.1137
-190	2591.7557
-189	2753.4216
-188	2794.721
-187	2728.7609
-186	2686.1724
-185	2718.129
-184	2649.2145
-183	2728.2772
-182	2613.3348
-181	2690.3582
-180	2729.2659
-179	2630.8797
-178	2603.8208
-177	2684.2021
-176	2631.3229
-175	2536.3955
-174	2633.7201
-173	2506.6492
-172	2560.6692
-171	2637.5649
-170	2599.1854
-169	2617.4074
-168	2625.5706
-167	2714.8857
-166	2793.9129
-165	2749.9163
-164	2731.5816
-163	2876.9753
-162	2780.1508
-161	2735.3876
-160	2861.3213
-159	2783.5069
-158	2892.8513
-157	2876.6525
-156	2840.1817
-155	2888.1804
-154	3052.8413
-153	2951.3207
-152	2945.7373
-151	2836.5648
-150	2810.3831
-149	2883.2482
-148	2718.4587
-147	2678.946
-146	2598.8743
-145	2690.82
-144	2653.903
-143	2709.878
-142	2606.0515
-141	2694.3493
-140	2639.1599
-139	2794.0017
-138	2733.3265
-137	2854.2743
-136	2667.6099
-135	2753.1845
-134	2832.3038
-133	2844.1702
-132	2818.5684
-131	3032.6944
-130	2792.9882
-129	2922.0722
-128	3095.7067
-127	2930.3559
-126	3257.7939
-125	3114.741
-124	3033.8434
-123	3070.3232
-122	3331.467
-121	3070.268
-120	2973.5657
-119	3001.821
-118	3043.8367
-117	2924.8399
-116	2869.2569
-115	2841.6766
-114	2706.7758
-113	2725.2486
-112	2686.0173
-111	2903.0682
-110	2779.512
-109	2796.497
-108	2737.8103
-107	2870.198
-106	2874.6912
-105	2865.506
-104	2936.838
-103	2937.2693
-102	3158.2826
-101	3114.9548
-100	3095.263
-99	3298.5393
-98	3241.6188
-97	3320.585
-96	3224.313
-95	3371.716
-94	3343.5671
-93	3370.7934
-92	3534.1835
-91	3255.7426
-90	3204.7441
-89	3241.449
-88	3231.9325
-87	3234.9589
-86	3154.0514
-85	2874.6481
-84	2911.3355
-83	2697.9359
-82	2700.8678
-81	2768.2793
-80	2710.7549
-79	2849.058
-78	2872.8597
-77	2735.8734
-76	2822.2485
-75	2850.7993
-74	2764.0986
-73	2936.0006
-72	3005.6077
-71	2970.021
-70	3187.1692
-69	3396.8207
-68	3283.208
-67	3463.981
-66	3608.8847
-65	3648.7585
-64	3703.165
-63	3970.8227
-62	3890.5065
-61	3675.1237
-60	3834.3388
-59	3784.2439
-58	3836.9857
-57	3712.3449
-56	3315.8397
-55	3356.5723
-54	3080.1
-53	3001.4744
-52	2771.7928
-51	2910.5965
-50	2852.6426
-49	2766.024
-48	2746.1238
-47	2824.5632
-46	2820.4856
-45	2844.0198
-44	2962.7822
-43	2893.1889
-42	3077.2501
-41	3013.5415
-40	3124.6301
-39	3344.0437
-38	3574.4221
-37	3615.1495
-36	3891.0257
-35	3998.608
-34	4125.4967
-33	4400.6114
-32	4468.4528
-31	4716.31
-30	4462.3838
-29	4305.63
-28	4681.1309
-27	4404.0283
-26	3517.5855
-25	3139.8897
-24	3181.3167
-23	2946.7595
-22	3097.9893
-21	3065.1809
-20	3080.6007
-19	3168.9978
-18	3278.0007
-17	3213.5387
-16	3580.9788
-15	3549.6186
-14	3618.3137
-13	3799.5899
-12	4616.5736
-11	4918.0716
-10	5464.4257
-9	6384.7798
-8	6816.2522
-7	8009.6359
-6	9308.6449
-5	11344.8468
-4	12989.3352
-3	15497.2704
-2	17733.6624
-1	20800.094
0	257375.6302
1	20800.094
2	17733.6624
3	15497.2704
4	12989.3352
5	11344.8468
6	9308.6449
7	8009.6359
8	6816.2522
9	6384.7798
10	5464.4257
11	4918.0716
12	4616.5736
13	3799.5899
14	3618.3137
15	3549.6186
16	3580.9788
17	3213.5387
18	3278.0007
19	3168.9978
20	3080.6007
21	3065.1809
22	3097.9893
23	2946.7595
24	3181.3167
25	3139.8897
26	3517.5855
27	4404.0283
28	4681.1309
29	4305.63
30	4462.3838
31	4716.31
32	4468.4528
33	4400.6114
34	4125.4967
35	3998.608
36	3891.0257
37	3615.1495
38	3574.4221
39	3344.0437
40	3124.6301
41	3013.5415
42	3077.2501
43	2893.1889
44	2962.7822
45	2844.0198
46	2820.4856
47	2824.5632
48	2746.1238
49	2766.024
50	2852.6426
51	2910.5965
52	2771.7928
53	3001.4744
54	3080.1
55	3356.5723
56	3315.8397
57	3712.3449
58	3836.9857
59	3784.2439
60	3834.3388
61	3675.1237
62	3890.5065
63	3970.8227
64	3703.165
65	3648.7585
66	3608.8847
67	3463.981
68	3283.208
69	3396.8207
70	3187.1692
71	2970.021
72	3005.6077
73	2936.0006
74	2764.0986
75	2850.7993
76	2822.2485
77	2735.8734
78	2872.8597
79	2849.058
80	2710.7549
81	2768.2793
82	2700.8678
83	2697.9359
84	2911.3355
85	2874.6481
86	3154.0514
87	3234.9589
88	3231.9325
89	3241.449
90	3204.7441
91	3255.7426
92	3534.1835
93	3370.7934
94	3343.5671
95	3371.716
96	3224.313
97	3320.585
98	3241.6188
99	3298.5393
100	3095.263
101	3114.9548
102	3158.2826
103	2937.2693
104	2936.838
105	2865.506
106	2874.6912
107	2870.198
108	2737.8103
109	2796.497
110	2779.512
111	2903.0682
112	2686.0173
113	2725.2486
114	2706.7758
115	2841.6766
116	2869.2569
117	2924.8399
118	3043.8367
119	3001.821
120	2973.5657
121	3070.268
122	3331.467
123	3070.3232
124	3033.8434
125	3114.741
126	3257.7939
127	2930.3559
128	3095.7067
129	2922.0722
130	2792.9882
131	3032.6944
132	2818.5684
133	2844.1702
134	2832.3038
135	2753.1845
136	2667.6099
137	2854.2743
138	2733.3265
139	2794.0017
140	2639.1599
141	2694.3493
142	2606.0515
143	2709.878
144	2653.903
145	2690.82
146	2598.8743
147	2678.946
148	2718.4587
149	2883.2482
150	2810.3831
151	2836.5648
152	2945.7373
153	2951.3207
154	3052.8413
155	2888.1804
156	2840.1817
157	2876.6525
158	2892.8513
159	2783.5069
160	2861.3213
161	2735.3876
162	2780.1508
163	2876.9753
164	2731.5816
165	2749.9163
166	2793.9129
167	2714.8857
168	2625.5706
169	2617.4074
170	2599.1854
171	2637.5649
172	2560.6692
173	2506.6492
174	2633.7201
175	2536.3955
176	2631.3229
177	2684.2021
178	2603.8208
179	2630.8797
180	2729.2659
181	2690.3582
182	2613.3348
183	2728.2772
184	2649.2145
185	2718.129
186	2686.1724
187	2728.7609
188	2794.721
189	2753.4216
190	2591.7557
191	2632.1137
192	2638.601
193	2704.9661
194	2535.9765
195	2639.4548
196	2524.1707
197	2630.0139
198	2691.0129
199	2635.8859
200	1327.4094
