Position	Value
-200	14836.0684
-199	29714.0319
-198	29698.3699
-197	29675.1737
-196	29173.5276
-195	29878.3097
-194	30058.5467
-193	29600.0902
-192	29544.6665
-191	29616.432
-190	29658.9967
-189	30007.7546
-188	30168.6894
-187	29547.7797
-186	29798.3447
-185	29427.5296
-184	29840.2183
-183	29749.3803
-182	29399.5624
-181	29989.5309
-180	30298.3793
-179	29675.3771
-178	30207.7871
-177	30344.4948
-176	30244.2157
-175	30618.0785
-174	30981.39
-173	30458.8118
-172	30902.5282
-171	30728.2628
-170	30609.4995
-169	31682.3359
-168	31575.8493
-167	31031.3553
-166	31573.0629
-165	31568.5496
-164	31280.4468
-163	31065.736
-162	31230.275
-161	30966.025
-160	31471.1734
-159	31535.7394
-158	31500.2152
-157	31556.4728
-156	32361.0792
-155	31741.6507
-154	31821.8702
-153	31736.6044
-152	32085.546
-151	32162.0767
-150	31863.4288
-149	31783.8763
-148	31441.5396
-147	32147.5815
-146	31893.2664
-145	31786.032
-144	32102.0078
-143	31692.0912
-142	32393.1946
-141	31788.8065
-140	32092.179
-139	32291.8276
-138	32941.3162
-137	32370.4571
-136	32883.4313
-135	33095.4926
-134	33292.454
-133	32720.9346
-132	33524.7425
-131	33571.0627
-130	33901.4178
-129	34025.7204
-128	33600.6054
-127	34428.4411
-126	34637.571
-125	33632.5965
-124	34185.3185
-123	34232.3408
-122	34139.6028
-121	33836.1349
-120	33974.8851
-119	34120.3824
-118	33505.2356
-117	33478.6084
-116	33212.3738
-115	33466.9187
-114	33490.7237
-113	33430.6086
-112	32665.3112
-111	33304.9122
-110	33937.8589
-109	33376.5295
-108	33646.6096
-107	33950.6728
-106	33595.1791
-105	34348.8311
-104	33498.6752
-103	33930.7323
-102	34534.4056
-101	34399.9456
-100	34618.3103
-99	35162.8805
-98	35187.9219
-97	34853.022
-96	35371.7716
-95	35664.8919
-94	35620.7284
-93	35786.7462
-92	35634.0655
-91	35657.7608
-90	35574.3182
-89	35365.4393
-88	35387.907
-87	35657.9529
-86	35281.295
-85	34922.222
-84	35137.4485
-83	34428.9652
-82	34729.8904
-81	35382.1116
-80	34898.4561
-79	35348.61
-78	35420.26
-77	35486.782
-76	35602.1358
-75	36439.076
-74	35877.0606
-73	36382.7966
-72	36753.5792
-71	36320.1468
-70	37214.0975
-69	38419.3465
-68	37641.6267
-67	38231.1407
-66	38837.1882
-65	39254.9442
-64	39172.1271
-63	38963.8196
-62	39641.148
-61	39046.6656
-60	38540.3671
-59	38868.4345
-58	38665.8617
-57	37984.5053
-56	37518.1415
-55	37655.4979
-54	36986.0769
-53	37006.9696
-52	37416.7995
-51	37148.4094
-50	36701.1155
-49	36979.7773
-48	37594.5329
-47	37152.7394
-46	37077.8353
-45	37749.9952
-44	37493.0015
-43	38351.1132
-42	38849.2387
-41	38728.9977
-40	39049.0186
-39	39297.2115
-38	40100.8865
-37	40530.9972
-36	41727.0901
-35	42045.77
-34	42550.1599
-33	43590.7245
-32	44119.196
-31	44667.8751
-30	43825.62
-29	42644.3575
-28	44169.1268
-27	43426.7134
-26	41362.6414
-25	39566.5023
-24	40135.9765
-23	39605.7064
-22	39950.8581
-21	41444.273
-20	41157.8511
-19	41731.4117
-18	42120.0773
-17	42589.2827
-16	42587.5205
-15	43401.0533
-14	43570.3796
-13	43685.6406
-12	45105.1224
-11	46289.4731
-10	45696.1008
-9	47632.8442
-8	47904.6337
-7	49000.14
-6	50033.8494
-5	51758.0231
-4	56017.0202
-3	61510.6557
-2	53040.9288
-1	55339.0963
0	311049.4362
1	55339.0963
2	53040.9288
3	61510.6557
4	56017.0202
5	51758.0231
6	50033.8494
7	49000.14
8	47904.6337
9	47632.8442
10	45696.1008
11	46289.4731
12	45105.1224
13	43685.6406
14	43570.3796
15	43401.0533
16	42587.5205
17	42589.2827
18	42120.0773
19	41731.4117
20	41157.8511
21	41444.273
22	39950.8581
23	39605.7064
24	40135.9765
25	39566.5023
26	41362.6414
27	43426.7134
28	44169.1268
29	42644.3575
30	43825.62
31	44667.8751
32	44119.196
33	43590.7245
34	42550.1599
35	42045.77
36	41727.0901
37	40530.9972
38	40100.8865
39	39297.2115
40	39049.0186
41	38728.9977
42	38849.2387
43	38351.1132
44	37493.0015
45	37749.9952
46	37077.8353
47	37152.7394
48	37594.5329
49	36979.7773
50	36701.1155
51	37148.4094
52	37416.7995
53	37006.9696
54	36986.0769
55	37655.4979
56	37518.1415
57	37984.5053
58	38665.8617
59	38868.4345
60	38540.3671
61	39046.6656
62	39641.148
63	38963.8196
64	39172.1271
65	39254.9442
66	38837.1882
67	38231.1407
68	37641.6267
69	38419.3465
70	37214.0975
71	36320.1468
72	36753.5792
73	36382.7966
74	35877.0606
75	36439.076
76	35602.1358
77	35486.782
78	35420.26
79	35348.61
80	34898.4561
81	35382.1116
82	34729.8904
83	34428.9652
84	35137.4485
85	34922.222
86	35281.295
87	35657.9529
88	35387.907
89	35365.4393
90	35574.3182
91	35657.7608
92	35634.0655
93	35786.7462
94	35620.7284
95	35664.8919
96	35371.7716
97	34853.022
98	35187.9219
99	35162.8805
100	34618.3103
101	34399.9456
102	34534.4056
103	33930.7323
104	33498.6752
105	34348.8311
106	33595.1791
107	33950.6728
108	33646.6096
109	33376.5295
110	33937.8589
111	33304.9122
112	32665.3112
113	33430.6086
114	33490.7237
115	33466.9187
116	33212.3738
117	33478.6084
118	33505.2356
119	34120.3824
120	33974.8851
121	33836.1349
122	34139.6028
123	34232.3408
124	34185.3185
125	33632.5965
126	34637.571
127	34428.4411
128	33600.6054
129	34025.7204
130	33901.4178
131	33571.0627
132	33524.7425
133	32720.9346
134	33292.454
135	33095.4926
136	32883.4313
137	32370.4571
138	32941.3162
139	32291.8276
140	32092.179
141	31788.8065
142	32393.1946
143	31692.0912
144	32102.0078
145	31786.032
146	31893.2664
147	32147.5815
148	31441.5396
149	31783.8763
150	31863.4288
151	32162.0767
152	32085.546
153	31736.6044
154	31821.8702
155	31741.6507
156	32361.0792
157	31556.4728
158	31500.2152
159	31535.7394
160	31471.1734
161	30966.025
162	31230.275
163	31065.736
164	31280.4468
165	31568.5496
166	31573.0629
167	31031.3553
168	31575.8493
169	31682.3359
170	30609.4995
171	30728.2628
172	30902.5282
173	30458.8118
174	30981.39
175	30618.0785
176	30244.2157
177	30344.4948
178	30207.7871
179	29675.3771
180	30298.3793
181	29989.5309
182	29399.5624
183	29749.3803
184	29840.2183
185	29427.5296
186	29798.3447
187	29547.7797
188	30168.6894
189	30007.7546
190	29658.9967
191	29616.432
192	29544.6665
193	29600.0902
194	30058.5467
195	29878.3097
196	29173.5276
197	29675.1737
198	29698.3699
199	29714.0319
200	14836.0684
