Position	Value
-200	8552.0246
-199	16796.3022
-198	17030.5467
-197	17331.7516
-196	16895.3107
-195	16948.4755
-194	17540.2099
-193	17795.0235
-192	17834.599
-191	17730.0135
-190	17563.1921
-189	17527.6519
-188	18175.7255
-187	17930.6227
-186	18214.631
-185	17938.9564
-184	17941.4942
-183	17885.9422
-182	17566.1615
-181	17965.9304
-180	17535.653
-179	18303.7438
-178	17885.2482
-177	17490.7573
-176	17971.8317
-175	17417.1069
-174	18183.2076
-173	17855.1823
-172	17247.1501
-171	17279.9113
-170	17151.3587
-169	16974.3798
-168	17385.6454
-167	17446.481
-166	17673.4254
-165	17946.8349
-164	17794.499
-163	17916.5514
-162	17591.9043
-161	17641.4107
-160	18205.1081
-159	18239.3657
-158	17924.6014
-157	19004.6272
-156	18871.4845
-155	18382.9352
-154	18796.8792
-153	18868.0684
-152	18686.4665
-151	18451.9099
-150	18829.1293
-149	18288.2297
-148	18511.9791
-147	18252.701
-146	17870.82
-145	18142.1967
-144	18232.4344
-143	18751.6987
-142	18278.0484
-141	18441.4047
-140	18814.0264
-139	18497.5104
-138	18684.0753
-137	18364.8071
-136	18323.6452
-135	19305.3326
-134	18458.3414
-133	18906.1644
-132	19444.579
-131	19426.4757
-130	19043.2162
-129	19029.5835
-128	19344.4201
-127	19947.0178
-126	20082.2686
-125	19513.9339
-124	20011.6945
-123	20093.1009
-122	19799.1188
-121	20140.0052
-120	19451.145
-119	19006.6479
-118	18770.9055
-117	18527.7596
-116	18856.7972
-115	18808.2041
-114	17978.8839
-113	18394.9878
-112	18241.5482
-111	19127.0172
-110	18557.7936
-109	18598.1572
-108	18473.5924
-107	18850.146
-106	19148.3313
-105	19223.4379
-104	19344.0515
-103	19513.3357
-102	20417.1522
-101	20747.7542
-100	20997.6428
-99	20974.7973
-98	21374.9173
-97	21546.5311
-96	21299.9118
-95	22260.0408
-94	22086.4607
-93	22222.6048
-92	21498.2284
-91	21681.9863
-90	21263.2675
-89	20877.7441
-88	20703.5775
-87	20447.5962
-86	20538.5004
-85	20299.9532
-84	20309.5617
-83	19822.4099
-82	19971.4878
-81	19957.4743
-80	20046.6278
-79	19665.7944
-78	20254.7553
-77	19547.1107
-76	20728.6407
-75	20558.5159
-74	21211.8563
-73	21312.0436
-72	21705.9741
-71	22410.9645
-70	22054.7872
-69	23089.2994
-68	23386.276
-67	23169.653
-66	24390.8805
-65	24635.04
-64	25418.067
-63	25060.4642
-62	24937.6542
-61	25870.0788
-60	25842.5165
-59	25333.2092
-58	24340.9779
-57	23755.4365
-56	23207.158
-55	22962.6528
-54	22493.5756
-53	22546.6055
-52	22821.6464
-51	21978.6966
-50	22542.4231
-49	22028.1324
-48	22806.3289
-47	22289.8568
-46	22337.8128
-45	23673.4037
-44	23321.0893
-43	23438.0973
-42	24391.2496
-41	24754.5459
-40	25160.6082
-39	25466.2306
-38	26462.4385
-37	27423.3401
-36	28301.3903
-35	29685.7595
-34	29753.2136
-33	30799.2966
-32	30785.4804
-31	31709.6166
-30	33059.3422
-29	32557.7559
-28	31228.8723
-27	30839.557
-26	28730.1786
-25	28759.661
-24	29105.8169
-23	29516.6912
-22	30097.6911
-21	30729.2593
-20	30599.5148
-19	32197.1285
-18	32312.4702
-17	32225.223
-16	34160.5255
-15	34365.6127
-14	36721.001
-13	39004.4674
-12	42674.6237
-11	44249.1248
-10	47300.6896
-9	53165.4367
-8	56099.5643
-7	61747.3273
-6	67910.2177
-5	79334.2144
-4	84081.838
-3	96674.1981
-2	99636.1153
-1	103911.6316
0	489274.9527
1	103911.6316
2	99636.1153
3	96674.1981
4	84081.838
5	79334.2144
6	67910.2177
7	61747.3273
8	56099.5643
9	53165.4367
10	47300.6896
11	44249.1248
12	42674.6237
13	39004.4674
14	36721.001
15	34365.6127
16	34160.5255
17	32225.223
18	32312.4702
19	32197.1285
20	30599.5148
21	30729.2593
22	30097.6911
23	29516.6912
24	29105.8169
25	28759.661
26	28730.1786
27	30839.557
28	31228.8723
29	32557.7559
30	33059.3422
31	31709.6166
32	30785.4804
33	30799.2966
34	29753.2136
35	29685.7595
36	28301.3903
37	27423.3401
38	26462.4385
39	25466.2306
40	25160.6082
41	24754.5459
42	24391.2496
43	23438.0973
44	23321.0893
45	23673.4037
46	22337.8128
47	22289.8568
48	22806.3289
49	22028.1324
50	22542.4231
51	21978.6966
52	22821.6464
53	22546.6055
54	22493.5756
55	22962.6528
56	23207.158
57	23755.4365
58	24340.9779
59	25333.2092
60	25842.5165
61	25870.0788
62	24937.6542
63	25060.4642
64	25418.067
65	24635.04
66	24390.8805
67	23169.653
68	23386.276
69	23089.2994
70	22054.7872
71	22410.9645
72	21705.9741
73	21312.0436
74	21211.8563
75	20558.5159
76	20728.6407
77	19547.1107
78	20254.7553
79	19665.7944
80	20046.6278
81	19957.4743
82	19971.4878
83	19822.4099
84	20309.5617
85	20299.9532
86	20538.5004
87	20447.5962
88	20703.5775
89	20877.7441
90	21263.2675
91	21681.9863
92	21498.2284
93	22222.6048
94	22086.4607
95	22260.0408
96	21299.9118
97	21546.5311
98	21374.9173
99	20974.7973
100	20997.6428
101	20747.7542
102	20417.1522
103	19513.3357
104	19344.0515
105	19223.4379
106	19148.3313
107	18850.146
108	18473.5924
109	18598.1572
110	18557.7936
111	19127.0172
112	18241.5482
113	18394.9878
114	17978.8839
115	18808.2041
116	18856.7972
117	18527.7596
118	18770.9055
119	19006.6479
120	19451.145
121	20140.0052
122	19799.1188
123	20093.1009
124	20011.6945
125	19513.9339
126	20082.2686
127	19947.0178
128	19344.4201
129	19029.5835
130	19043.2162
131	19426.4757
132	19444.579
133	18906.1644
134	18458.3414
135	19305.3326
136	18323.6452
137	18364.8071
138	18684.0753
139	18497.5104
140	18814.0264
141	18441.4047
142	18278.0484
143	18751.6987
144	18232.4344
145	18142.1967
146	17870.82
147	18252.701
148	18511.9791
149	18288.2297
150	18829.1293
151	18451.9099
152	18686.4665
153	18868.0684
154	18796.8792
155	18382.9352
156	18871.4845
157	19004.6272
158	17924.6014
159	18239.3657
160	18205.1081
161	17641.4107
162	17591.9043
163	17916.5514
164	17794.499
165	17946.8349
166	17673.4254
167	17446.481
168	17385.6454
169	16974.3798
170	17151.3587
171	17279.9113
172	17247.1501
173	17855.1823
174	18183.2076
175	17417.1069
176	17971.8317
177	17490.7573
178	17885.2482
179	18303.7438
180	17535.653
181	17965.9304
182	17566.1615
183	17885.9422
184	17941.4942
185	17938.9564
186	18214.631
187	17930.6227
188	18175.7255
189	17527.6519
190	17563.1921
191	17730.0135
192	17834.599
193	17795.0235
194	17540.2099
195	16948.4755
196	16895.3107
197	17331.7516
198	17030.5467
199	16796.3022
200	8552.0246
