Position	Value
-200	854.0891
-199	1725.0134
-198	1693.0571
-197	1777.1504
-196	1776.1214
-195	1790.6604
-194	1753.6418
-193	1923.9889
-192	1804.8825
-191	1918.9161
-190	1895.2506
-189	2021.015
-188	1958.7825
-187	1925.8462
-186	1953.7825
-185	2041.3162
-184	2039.2446
-183	1942.737
-182	1739.5221
-181	1870.4411
-180	1895.5265
-179	1934.6592
-178	1955.023
-177	1801.2281
-176	1763.1689
-175	1746.3009
-174	1731.3211
-173	1937.6149
-172	1778.3174
-171	1834.3946
-170	1829.2219
-169	1895.3583
-168	1792.8631
-167	1695.6904
-166	1947.6783
-165	1888.5759
-164	1807.0474
-163	1970.8925
-162	1914.2972
-161	2027.6978
-160	1937.5013
-159	2014.7751
-158	2043.2889
-157	2054.265
-156	2107.5814
-155	2019.5006
-154	2143.2334
-153	2119.8378
-152	2008.1699
-151	2057.7024
-150	1923.5534
-149	1985.2687
-148	1815.6743
-147	1956.6447
-146	1839.6213
-145	1893.966
-144	2112.0207
-143	1967.2058
-142	1914.3778
-141	1926.8689
-140	1934.1769
-139	2014.4286
-138	1957.0101
-137	1976.23
-136	2069.8607
-135	2145.6351
-134	2185.8095
-133	2208.2522
-132	2057.864
-131	2144.5287
-130	2277.3368
-129	2289.2178
-128	2236.776
-127	2288.2432
-126	2276.9168
-125	2354.9742
-124	2285.3006
-123	2378.7029
-122	2369.9379
-121	2198.5578
-120	2198.2279
-119	2214.1296
-118	1994.514
-117	2097.7647
-116	2057.5824
-115	1987.934
-114	1970.5722
-113	1943.954
-112	2072.96
-111	2157.2833
-110	2202.4686
-109	2251.3668
-108	2077.9686
-107	2168.2014
-106	2110.6586
-105	2242.9778
-104	2157.0531
-103	2277.9096
-102	2293.812
-101	2460.8196
-100	2424.4822
-99	2706.01
-98	2649.9761
-97	2652.4893
-96	2776.0602
-95	2990.7154
-94	2864.268
-93	2857.6503
-92	2949.2681
-91	2837.2031
-90	2587.1748
-89	2655.9403
-88	2437.4343
-87	2541.7415
-86	2175.9922
-85	2268.4889
-84	2072.9233
-83	2219.6848
-82	2219.4337
-81	2148.4088
-80	2178.5096
-79	2100.4449
-78	2258.3116
-77	2276.0405
-76	2266.8902
-75	2241.2158
-74	2400.9077
-73	2562.6053
-72	2568.5248
-71	2798.1312
-70	3003.7619
-69	3127.9276
-68	3162.612
-67	3323.8942
-66	3661.5432
-65	3651.9973
-64	3667.2657
-63	3698.7467
-62	3820.1993
-61	4017.119
-60	3910.8721
-59	3677.5328
-58	3645.0985
-57	3186.633
-56	2849.8388
-55	2783.8082
-54	2529.0377
-53	2484.82
-52	2539.2331
-51	2467.1788
-50	2529.6924
-49	2585.8217
-48	2571.685
-47	2569.943
-46	2482.7608
-45	2697.832
-44	2713.5981
-43	2729.6632
-42	2849.2174
-41	2957.6363
-40	3380.898
-39	3134.1388
-38	3743.3899
-37	3601.2651
-36	4407.113
-35	4963.2036
-34	4841.8478
-33	5329.8365
-32	5356.9871
-31	5448.4684
-30	5629.8557
-29	5550.0905
-28	4731.3113
-27	4425.7531
-26	3988.9961
-25	3578.4203
-24	3557.3455
-23	3413.5201
-22	3647.8352
-21	3703.6202
-20	3503.6512
-19	3624.8115
-18	3853.2415
-17	3948.8536
-16	3931.7867
-15	4045.1329
-14	4214.6516
-13	4443.2914
-12	4843.0775
-11	5299.7003
-10	5821.3396
-9	6663.8097
-8	6774.0857
-7	7941.2019
-6	8313.0601
-5	10160.7937
-4	11372.4833
-3	13486.8261
-2	14514.8238
-1	16250.2291
0	96629.2141
1	16250.2291
2	14514.8238
3	13486.8261
4	11372.4833
5	10160.7937
6	8313.0601
7	7941.2019
8	6774.0857
9	6663.8097
10	5821.3396
11	5299.7003
12	4843.0775
13	4443.2914
14	4214.6516
15	4045.1329
16	3931.7867
17	3948.8536
18	3853.2415
19	3624.8115
20	3503.6512
21	3703.6202
22	3647.8352
23	3413.5201
24	3557.3455
25	3578.4203
26	3988.9961
27	4425.7531
28	4731.3113
29	5550.0905
30	5629.8557
31	5448.4684
32	5356.9871
33	5329.8365
34	4841.8478
35	4963.2036
36	4407.113
37	3601.2651
38	3743.3899
39	3134.1388
40	3380.898
41	2957.6363
42	2849.2174
43	2729.6632
44	2713.5981
45	2697.832
46	2482.7608
47	2569.943
48	2571.685
49	2585.8217
50	2529.6924
51	2467.1788
52	2539.2331
53	2484.82
54	2529.0377
55	2783.8082
56	2849.8388
57	3186.633
58	3645.0985
59	3677.5328
60	3910.8721
61	4017.119
62	3820.1993
63	3698.7467
64	3667.2657
65	3651.9973
66	3661.5432
67	3323.8942
68	3162.612
69	3127.9276
70	3003.7619
71	2798.1312
72	2568.5248
73	2562.6053
74	2400.9077
75	2241.2158
76	2266.8902
77	2276.0405
78	2258.3116
79	2100.4449
80	2178.5096
81	2148.4088
82	2219.4337
83	2219.6848
84	2072.9233
85	2268.4889
86	2175.9922
87	2541.7415
88	2437.4343
89	2655.9403
90	2587.1748
91	2837.2031
92	2949.2681
93	2857.6503
94	2864.268
95	2990.7154
96	2776.0602
97	2652.4893
98	2649.9761
99	2706.01
100	2424.4822
101	2460.8196
102	2293.812
103	2277.9096
104	2157.0531
105	2242.9778
106	2110.6586
107	2168.2014
108	2077.9686
109	2251.3668
110	2202.4686
111	2157.2833
112	2072.96
113	1943.954
114	1970.5722
115	1987.934
116	2057.5824
117	2097.7647
118	1994.514
119	2214.1296
120	2198.2279
121	2198.5578
122	2369.9379
123	2378.7029
124	2285.3006
125	2354.9742
126	2276.9168
127	2288.2432
128	2236.776
129	2289.2178
130	2277.3368
131	2144.5287
132	2057.864
133	2208.2522
134	2185.8095
135	2145.6351
136	2069.8607
137	1976.23
138	1957.0101
139	2014.4286
140	1934.1769
141	1926.8689
142	1914.3778
143	1967.2058
144	2112.0207
145	1893.966
146	1839.6213
147	1956.6447
148	1815.6743
149	1985.2687
150	1923.5534
151	2057.7024
152	2008.1699
153	2119.8378
154	2143.2334
155	2019.5006
156	2107.5814
157	2054.265
158	2043.2889
159	2014.7751
160	1937.5013
161	2027.6978
162	1914.2972
163	1970.8925
164	1807.0474
165	1888.5759
166	1947.6783
167	1695.6904
168	1792.8631
169	1895.3583
170	1829.2219
171	1834.3946
172	1778.3174
173	1937.6149
174	1731.3211
175	1746.3009
176	1763.1689
177	1801.2281
178	1955.023
179	1934.6592
180	1895.5265
181	1870.4411
182	1739.5221
183	1942.737
184	2039.2446
185	2041.3162
186	1953.7825
187	1925.8462
188	1958.7825
189	2021.015
190	1895.2506
191	1918.9161
192	1804.8825
193	1923.9889
194	1753.6418
195	1790.6604
196	1776.1214
197	1777.1504
198	1693.0571
199	1725.0134
200	854.0891
