Position	Value
-200	817.354
-199	1643.6422
-198	1556.2823
-197	1612.452
-196	1669.723
-195	1725.8394
-194	1612.6398
-193	1780.7738
-192	1756.5651
-191	1738.17
-190	1867.3033
-189	1897.3049
-188	1871.4053
-187	1881.287
-186	1855.2696
-185	1925.698
-184	1933.7765
-183	1856.8796
-182	1758.2778
-181	1855.6857
-180	1749.1821
-179	1862.7354
-178	1796.4334
-177	1739.6943
-176	1702.7023
-175	1770.7609
-174	1684.0097
-173	1788.1645
-172	1829.167
-171	1738.3248
-170	1778.6291
-169	1772.8807
-168	1777.5057
-167	1772.7301
-166	1860.2956
-165	1860.7047
-164	1898.16
-163	1836.2833
-162	1930.371
-161	1933.3557
-160	1955.5033
-159	1997.0399
-158	1997.7452
-157	2071.4571
-156	2041.9863
-155	2023.4837
-154	2015.5231
-153	2074.3224
-152	2022.9956
-151	1995.7002
-150	1873.6081
-149	2052.5042
-148	1842.9723
-147	1968.3983
-146	1860.641
-145	1881.4234
-144	1946.192
-143	1912.4893
-142	1951.2368
-141	1993.448
-140	1970.4216
-139	2037.6163
-138	2018.2331
-137	2028.3619
-136	2087.748
-135	2152.559
-134	2222.9533
-133	2267.1403
-132	2121.0042
-131	2105.9078
-130	2273.817
-129	2222.2318
-128	2269.9412
-127	2337.2989
-126	2383.2694
-125	2385.0067
-124	2223.2344
-123	2271.0289
-122	2255.5814
-121	2257.4107
-120	2064.0156
-119	2258.5259
-118	2015.5341
-117	2103.7031
-116	2059.2663
-115	1967.1031
-114	1952.8403
-113	1997.2333
-112	2022.0423
-111	2071.8648
-110	2133.3017
-109	2105.2995
-108	2134.8374
-107	2157.3656
-106	2083.6227
-105	2277.6737
-104	2192.7823
-103	2282.8648
-102	2303.3901
-101	2456.4634
-100	2420.837
-99	2683.3468
-98	2770.2461
-97	2706.2724
-96	2747.2519
-95	2932.8437
-94	2771.9561
-93	2813.3705
-92	3034.03
-91	2903.1375
-90	2681.2992
-89	2751.4778
-88	2564.7603
-87	2531.4287
-86	2340.9879
-85	2356.0164
-84	2167.5145
-83	2207.5137
-82	2219.8334
-81	2180.5294
-80	2195.723
-79	2135.8872
-78	2311.449
-77	2337.9229
-76	2404.7051
-75	2435.8852
-74	2530.1812
-73	2743.5694
-72	2613.7813
-71	2896.2266
-70	3032.4729
-69	3137.3513
-68	3195.163
-67	3517.8818
-66	3741.5985
-65	3602.2191
-64	3595.2291
-63	3687.7427
-62	3772.5918
-61	4048.8972
-60	3836.837
-59	3708.2588
-58	3589.352
-57	3302.4974
-56	2983.2388
-55	2905.7199
-54	2636.5287
-53	2546.4787
-52	2560.3617
-51	2509.837
-50	2535.4163
-49	2493.4852
-48	2570.9753
-47	2598.8874
-46	2532.9634
-45	2827.1455
-44	2789.9835
-43	2742.1276
-42	2814.8262
-41	3059.0282
-40	3302.8208
-39	3190.5759
-38	3791.9471
-37	3614.7725
-36	4335.3161
-35	4865.0907
-34	4735.3204
-33	5207.367
-32	5179.6494
-31	5255.4214
-30	5457.1353
-29	5567.0753
-28	4581.8496
-27	4325.7685
-26	3905.0527
-25	3559.4082
-24	3586.2511
-23	3452.0973
-22	3686.527
-21	3781.7433
-20	3615.1321
-19	3834.2347
-18	4056.4819
-17	4324.3748
-16	4202.8764
-15	4337.4722
-14	4407.7266
-13	4603.0019
-12	5299.4434
-11	5733.657
-10	6150.8922
-9	6847.9976
-8	7225.4586
-7	8384.3164
-6	8900.9639
-5	10804.2233
-4	11727.8836
-3	14272.8706
-2	15611.7006
-1	17693.14
0	91855.7751
1	17693.14
2	15611.7006
3	14272.8706
4	11727.8836
5	10804.2233
6	8900.9639
7	8384.3164
8	7225.4586
9	6847.9976
10	6150.8922
11	5733.657
12	5299.4434
13	4603.0019
14	4407.7266
15	4337.4722
16	4202.8764
17	4324.3748
18	4056.4819
19	3834.2347
20	3615.1321
21	3781.7433
22	3686.527
23	3452.0973
24	3586.2511
25	3559.4082
26	3905.0527
27	4325.7685
28	4581.8496
29	5567.0753
30	5457.1353
31	5255.4214
32	5179.6494
33	5207.367
34	4735.3204
35	4865.0907
36	4335.3161
37	3614.7725
38	3791.9471
39	3190.5759
40	3302.8208
41	3059.0282
42	2814.8262
43	2742.1276
44	2789.9835
45	2827.1455
46	2532.9634
47	2598.8874
48	2570.9753
49	2493.4852
50	2535.4163
51	2509.837
52	2560.3617
53	2546.4787
54	2636.5287
55	2905.7199
56	2983.2388
57	3302.4974
58	3589.352
59	3708.2588
60	3836.837
61	4048.8972
62	3772.5918
63	3687.7427
64	3595.2291
65	3602.2191
66	3741.5985
67	3517.8818
68	3195.163
69	3137.3513
70	3032.4729
71	2896.2266
72	2613.7813
73	2743.5694
74	2530.1812
75	2435.8852
76	2404.7051
77	2337.9229
78	2311.449
79	2135.8872
80	2195.723
81	2180.5294
82	2219.8334
83	2207.5137
84	2167.5145
85	2356.0164
86	2340.9879
87	2531.4287
88	2564.7603
89	2751.4778
90	2681.2992
91	2903.1375
92	3034.03
93	2813.3705
94	2771.9561
95	2932.8437
96	2747.2519
97	2706.2724
98	2770.2461
99	2683.3468
100	2420.837
101	2456.4634
102	2303.3901
103	2282.8648
104	2192.7823
105	2277.6737
106	2083.6227
107	2157.3656
108	2134.8374
109	2105.2995
110	2133.3017
111	2071.8648
112	2022.0423
113	1997.2333
114	1952.8403
115	1967.1031
116	2059.2663
117	2103.7031
118	2015.5341
119	2258.5259
120	2064.0156
121	2257.4107
122	2255.5814
123	2271.0289
124	2223.2344
125	2385.0067
126	2383.2694
127	2337.2989
128	2269.9412
129	2222.2318
130	2273.817
131	2105.9078
132	2121.0042
133	2267.1403
134	2222.9533
135	2152.559
136	2087.748
137	2028.3619
138	2018.2331
139	2037.6163
140	1970.4216
141	1993.448
142	1951.2368
143	1912.4893
144	1946.192
145	1881.4234
146	1860.641
147	1968.3983
148	1842.9723
149	2052.5042
150	1873.6081
151	1995.7002
152	2022.9956
153	2074.3224
154	2015.5231
155	2023.4837
156	2041.9863
157	2071.4571
158	1997.7452
159	1997.0399
160	1955.5033
161	1933.3557
162	1930.371
163	1836.2833
164	1898.16
165	1860.7047
166	1860.2956
167	1772.7301
168	1777.5057
169	1772.8807
170	1778.6291
171	1738.3248
172	1829.167
173	1788.1645
174	1684.0097
175	1770.7609
176	1702.7023
177	1739.6943
178	1796.4334
179	1862.7354
180	1749.1821
181	1855.6857
182	1758.2778
183	1856.8796
184	1933.7765
185	1925.698
186	1855.2696
187	1881.287
188	1871.4053
189	1897.3049
190	1867.3033
191	1738.17
192	1756.5651
193	1780.7738
194	1612.6398
195	1725.8394
196	1669.723
197	1612.452
198	1556.2823
199	1643.6422
200	817.354
