Position	Value
-200	171403.7872
-199	343916.0862
-198	345565.9933
-197	346748.8012
-196	344471.3354
-195	347741.6428
-194	347092.0646
-193	348640.211
-192	347219.115
-191	347159.2885
-190	349595.4507
-189	349472.3927
-188	346995.9875
-187	349730.3032
-186	350057.6481
-185	348196.8548
-184	347329.7933
-183	348652.1067
-182	347514.8761
-181	347460.7883
-180	350083.5411
-179	350250.2126
-178	349362.3106
-177	350258.3907
-176	351000.0967
-175	350437.3051
-174	352944.6635
-173	351136.2916
-172	354524.6365
-171	353761.8198
-170	355026.0445
-169	357425.5106
-168	359369.2846
-167	359437.8744
-166	359593.8405
-165	363669.3854
-164	363143.6491
-163	366230.4655
-162	368120.791
-161	365915.0658
-160	368124.1335
-159	369753.5468
-158	368895.9774
-157	367475.1726
-156	372843.5476
-155	368323.043
-154	368215.0221
-153	367403.7006
-152	366078.232
-151	366056.494
-150	366960.6236
-149	364301.6328
-148	363187.8795
-147	365392.9058
-146	363420.4051
-145	361599.344
-144	365954.3467
-143	365794.1717
-142	365857.7021
-141	365698.584
-140	366931.6246
-139	367987.4278
-138	369912.0949
-137	372336.7328
-136	373994.1037
-135	378615.6039
-134	376353.0318
-133	377796.2124
-132	382651.2891
-131	382840.5557
-130	383790.921
-129	385868.4796
-128	385315.946
-127	386033.4982
-126	386153.1113
-125	386323.8185
-124	384138.9285
-123	384823.9992
-122	384624.4394
-121	382062.1955
-120	381353.4484
-119	380102.5158
-118	377958.9917
-117	378236.4133
-116	375196.5099
-115	376060.0781
-114	376399.5407
-113	373956.389
-112	375498.8896
-111	378119.8906
-110	377862.7584
-109	378392.8861
-108	380420.237
-107	380927.7349
-106	383986.2434
-105	387260.4052
-104	388345.3252
-103	393164.1998
-102	395293.9797
-101	395515.2616
-100	396822.0557
-99	400612.2118
-98	405569.8406
-97	405596.9384
-96	405784.8072
-95	406790.8723
-94	405701.0479
-93	408266.5734
-92	406040.0049
-91	404037.1687
-90	401841.9676
-89	397361.1442
-88	394197.8372
-87	394206.7185
-86	392225.0316
-85	390982.3964
-84	390084.6487
-83	390832.4689
-82	388729.1571
-81	392239.9892
-80	392565.8224
-79	393713.5744
-78	398012.4832
-77	397737.0983
-76	399461.1473
-75	402806.477
-74	402572.5148
-73	408305.4155
-72	411691.2416
-71	414940.6888
-70	420716.1696
-69	428044.5306
-68	429122.0752
-67	431424.2066
-66	440495.9576
-65	441364.4428
-64	444548.9615
-63	445866.779
-62	444355.6913
-61	443874.3332
-60	441225.6619
-59	433385.9043
-58	425840.0272
-57	423437.181
-56	412841.3312
-55	406711.9086
-54	411427.3
-53	405309.97
-52	404670.8529
-51	407108.7027
-50	406756.9812
-49	405116.2928
-48	408843.4911
-47	408240.407
-46	409510.805
-45	416837.5359
-44	414609.0329
-43	418979.5398
-42	423449.5613
-41	427492.4199
-40	433741.7834
-39	442805.6816
-38	444431.724
-37	456042.9992
-36	467578.9981
-35	477333.3836
-34	488700.3987
-33	502804.5319
-32	512660.3873
-31	526036.8345
-30	531973.4392
-29	511026.3448
-28	480829.444
-27	455661.5477
-26	433583.2406
-25	432792.7045
-24	443863.0054
-23	438883.0994
-22	442141.8168
-21	454619.1662
-20	451175.1238
-19	459305.1909
-18	473170.1885
-17	479517.3306
-16	489240.3054
-15	502573.2325
-14	515174.5833
-13	538531.5406
-12	577888.7336
-11	605152.3878
-10	628560.2436
-9	656642.2357
-8	677481.3796
-7	731789.8887
-6	772656.1775
-5	868423.7283
-4	906712.9567
-3	962429.2633
-2	1036990.5543
-1	1048617.9329
0	5560681.8231
1	1048617.9329
2	1036990.5543
3	962429.2633
4	906712.9567
5	868423.7283
6	772656.1775
7	731789.8887
8	677481.3796
9	656642.2357
10	628560.2436
11	605152.3878
12	577888.7336
13	538531.5406
14	515174.5833
15	502573.2325
16	489240.3054
17	479517.3306
18	473170.1885
19	459305.1909
20	451175.1238
21	454619.1662
22	442141.8168
23	438883.0994
24	443863.0054
25	432792.7045
26	433583.2406
27	455661.5477
28	480829.444
29	511026.3448
30	531973.4392
31	526036.8345
32	512660.3873
33	502804.5319
34	488700.3987
35	477333.3836
36	467578.9981
37	456042.9992
38	444431.724
39	442805.6816
40	433741.7834
41	427492.4199
42	423449.5613
43	418979.5398
44	414609.0329
45	416837.5359
46	409510.805
47	408240.407
48	408843.4911
49	405116.2928
50	406756.9812
51	407108.7027
52	404670.8529
53	405309.97
54	411427.3
55	406711.9086
56	412841.3312
57	423437.181
58	425840.0272
59	433385.9043
60	441225.6619
61	443874.3332
62	444355.6913
63	445866.779
64	444548.9615
65	441364.4428
66	440495.9576
67	431424.2066
68	429122.0752
69	428044.5306
70	420716.1696
71	414940.6888
72	411691.2416
73	408305.4155
74	402572.5148
75	402806.477
76	399461.1473
77	397737.0983
78	398012.4832
79	393713.5744
80	392565.8224
81	392239.9892
82	388729.1571
83	390832.4689
84	390084.6487
85	390982.3964
86	392225.0316
87	394206.7185
88	394197.8372
89	397361.1442
90	401841.9676
91	404037.1687
92	406040.0049
93	408266.5734
94	405701.0479
95	406790.8723
96	405784.8072
97	405596.9384
98	405569.8406
99	400612.2118
100	396822.0557
101	395515.2616
102	395293.9797
103	393164.1998
104	388345.3252
105	387260.4052
106	383986.2434
107	380927.7349
108	380420.237
109	378392.8861
110	377862.7584
111	378119.8906
112	375498.8896
113	373956.389
114	376399.5407
115	376060.0781
116	375196.5099
117	378236.4133
118	377958.9917
119	380102.5158
120	381353.4484
121	382062.1955
122	384624.4394
123	384823.9992
124	384138.9285
125	386323.8185
126	386153.1113
127	386033.4982
128	385315.946
129	385868.4796
130	383790.921
131	382840.5557
132	382651.2891
133	377796.2124
134	376353.0318
135	378615.6039
136	373994.1037
137	372336.7328
138	369912.0949
139	367987.4278
140	366931.6246
141	365698.584
142	365857.7021
143	365794.1717
144	365954.3467
145	361599.344
146	363420.4051
147	365392.9058
148	363187.8795
149	364301.6328
150	366960.6236
151	366056.494
152	366078.232
153	367403.7006
154	368215.0221
155	368323.043
156	372843.5476
157	367475.1726
158	368895.9774
159	369753.5468
160	368124.1335
161	365915.0658
162	368120.791
163	366230.4655
164	363143.6491
165	363669.3854
166	359593.8405
167	359437.8744
168	359369.2846
169	357425.5106
170	355026.0445
171	353761.8198
172	354524.6365
173	351136.2916
174	352944.6635
175	350437.3051
176	351000.0967
177	350258.3907
178	349362.3106
179	350250.2126
180	350083.5411
181	347460.7883
182	347514.8761
183	348652.1067
184	347329.7933
185	348196.8548
186	350057.6481
187	349730.3032
188	346995.9875
189	349472.3927
190	349595.4507
191	347159.2885
192	347219.115
193	348640.211
194	347092.0646
195	347741.6428
196	344471.3354
197	346748.8012
198	345565.9933
199	343916.0862
200	171403.7872
