Position	Value
-200	519.4
-199	1124.6411
-198	1012.1639
-197	1062.1166
-196	1136.5949
-195	1164.8089
-194	1095.4775
-193	1101.4314
-192	1107.4914
-191	1129.0007
-190	1228.0898
-189	1205.9104
-188	1144.6194
-187	1247.4091
-186	1168.9665
-185	1199.7682
-184	1240.1737
-183	1186.5236
-182	1101.4085
-181	1108.8451
-180	1214.3478
-179	1193.6652
-178	1217.882
-177	1168.9008
-176	1143.9468
-175	1183.1866
-174	1163.8991
-173	1100.9882
-172	1164.9685
-171	1117.8663
-170	1139.2113
-169	1224.6827
-168	1188.1359
-167	1202.325
-166	1204.363
-165	1179.0806
-164	1134.3675
-163	1113.6817
-162	1171.5678
-161	1229.3449
-160	1274.3094
-159	1296.8126
-158	1297.8389
-157	1298.0029
-156	1278.1935
-155	1211.9702
-154	1324.7077
-153	1287.9618
-152	1284.5058
-151	1215.918
-150	1232.3609
-149	1239.1523
-148	1109.1713
-147	1173.6318
-146	1104.0998
-145	1181.3788
-144	1301.6359
-143	1287.5071
-142	1233.2224
-141	1281.5315
-140	1278.3834
-139	1359.0109
-138	1212.6627
-137	1270.4382
-136	1236.0845
-135	1414.3935
-134	1447.1688
-133	1377.9315
-132	1300.9733
-131	1307.9401
-130	1409.7159
-129	1425.2328
-128	1403.6068
-127	1527.727
-126	1495.6175
-125	1463.1907
-124	1510.9819
-123	1407.1908
-122	1440.7687
-121	1302.6816
-120	1242.4265
-119	1274.0404
-118	1161.2397
-117	1227.8195
-116	1171.9576
-115	1109.3589
-114	1115.0492
-113	1117.9663
-112	1170.5602
-111	1326.8853
-110	1159.9888
-109	1330.8603
-108	1245.3649
-107	1412.3496
-106	1424.668
-105	1484.3639
-104	1510.788
-103	1572.1877
-102	1456.4414
-101	1574.8027
-100	1605.9205
-99	1728.6394
-98	1802.4001
-97	1698.6155
-96	1833.7479
-95	1986.3835
-94	1947.3589
-93	1870.2988
-92	2008.4706
-91	1819.7961
-90	1565.5681
-89	1750.5387
-88	1497.0527
-87	1473.7615
-86	1412.9047
-85	1377.2598
-84	1197.0168
-83	1241.8725
-82	1221.9813
-81	1199.1375
-80	1238.8106
-79	1191.3258
-78	1306.5457
-77	1368.7851
-76	1397.2703
-75	1421.2045
-74	1610.708
-73	1600.3082
-72	1653.7107
-71	1800.4971
-70	1891.2731
-69	1970.4036
-68	2157.4478
-67	2489.5539
-66	2527.3475
-65	2478.4509
-64	2496.0156
-63	2582.6658
-62	2687.4867
-61	2886.4256
-60	2751.1784
-59	2490.7471
-58	2472.6238
-57	2161.9171
-56	1990.2037
-55	1834.5351
-54	1654.1876
-53	1536.09
-52	1554.6706
-51	1572.8625
-50	1492.1803
-49	1552.5234
-48	1577.1242
-47	1527.2685
-46	1551.9402
-45	1692.7566
-44	1682.2493
-43	1763.5209
-42	1860.0178
-41	1903.4508
-40	2170.2739
-39	2087.7283
-38	2435.9899
-37	2446.2438
-36	3082.9376
-35	3747.4739
-34	3549.7841
-33	3888.3822
-32	3985.5428
-31	3864.6431
-30	3916.7685
-29	3915.1382
-28	3319.5671
-27	3114.84
-26	2695.1062
-25	2563.3655
-24	2319.7
-23	2332.3699
-22	2558.0395
-21	2357.1022
-20	2390.7292
-19	2392.9039
-18	2567.3488
-17	2522.0614
-16	2677.8451
-15	2547.1434
-14	2658.9312
-13	2839.5137
-12	3149.2742
-11	3506.6816
-10	3774.4517
-9	4344.2289
-8	4606.7008
-7	5394.6303
-6	6092.7686
-5	7552.4234
-4	8343.4791
-3	9875.0556
-2	11114.3594
-1	12779.7339
0	69429.2576
1	12779.7339
2	11114.3594
3	9875.0556
4	8343.4791
5	7552.4234
6	6092.7686
7	5394.6303
8	4606.7008
9	4344.2289
10	3774.4517
11	3506.6816
12	3149.2742
13	2839.5137
14	2658.9312
15	2547.1434
16	2677.8451
17	2522.0614
18	2567.3488
19	2392.9039
20	2390.7292
21	2357.1022
22	2558.0395
23	2332.3699
24	2319.7
25	2563.3655
26	2695.1062
27	3114.84
28	3319.5671
29	3915.1382
30	3916.7685
31	3864.6431
32	3985.5428
33	3888.3822
34	3549.7841
35	3747.4739
36	3082.9376
37	2446.2438
38	2435.9899
39	2087.7283
40	2170.2739
41	1903.4508
42	1860.0178
43	1763.5209
44	1682.2493
45	1692.7566
46	1551.9402
47	1527.2685
48	1577.1242
49	1552.5234
50	1492.1803
51	1572.8625
52	1554.6706
53	1536.09
54	1654.1876
55	1834.5351
56	1990.2037
57	2161.9171
58	2472.6238
59	2490.7471
60	2751.1784
61	2886.4256
62	2687.4867
63	2582.6658
64	2496.0156
65	2478.4509
66	2527.3475
67	2489.5539
68	2157.4478
69	1970.4036
70	1891.2731
71	1800.4971
72	1653.7107
73	1600.3082
74	1610.708
75	1421.2045
76	1397.2703
77	1368.7851
78	1306.5457
79	1191.3258
80	1238.8106
81	1199.1375
82	1221.9813
83	1241.8725
84	1197.0168
85	1377.2598
86	1412.9047
87	1473.7615
88	1497.0527
89	1750.5387
90	1565.5681
91	1819.7961
92	2008.4706
93	1870.2988
94	1947.3589
95	1986.3835
96	1833.7479
97	1698.6155
98	1802.4001
99	1728.6394
100	1605.9205
101	1574.8027
102	1456.4414
103	1572.1877
104	1510.788
105	1484.3639
106	1424.668
107	1412.3496
108	1245.3649
109	1330.8603
110	1159.9888
111	1326.8853
112	1170.5602
113	1117.9663
114	1115.0492
115	1109.3589
116	1171.9576
117	1227.8195
118	1161.2397
119	1274.0404
120	1242.4265
121	1302.6816
122	1440.7687
123	1407.1908
124	1510.9819
125	1463.1907
126	1495.6175
127	1527.727
128	1403.6068
129	1425.2328
130	1409.7159
131	1307.9401
132	1300.9733
133	1377.9315
134	1447.1688
135	1414.3935
136	1236.0845
137	1270.4382
138	1212.6627
139	1359.0109
140	1278.3834
141	1281.5315
142	1233.2224
143	1287.5071
144	1301.6359
145	1181.3788
146	1104.0998
147	1173.6318
148	1109.1713
149	1239.1523
150	1232.3609
151	1215.918
152	1284.5058
153	1287.9618
154	1324.7077
155	1211.9702
156	1278.1935
157	1298.0029
158	1297.8389
159	1296.8126
160	1274.3094
161	1229.3449
162	1171.5678
163	1113.6817
164	1134.3675
165	1179.0806
166	1204.363
167	1202.325
168	1188.1359
169	1224.6827
170	1139.2113
171	1117.8663
172	1164.9685
173	1100.9882
174	1163.8991
175	1183.1866
176	1143.9468
177	1168.9008
178	1217.882
179	1193.6652
180	1214.3478
181	1108.8451
182	1101.4085
183	1186.5236
184	1240.1737
185	1199.7682
186	1168.9665
187	1247.4091
188	1144.6194
189	1205.9104
190	1228.0898
191	1129.0007
192	1107.4914
193	1101.4314
194	1095.4775
195	1164.8089
196	1136.5949
197	1062.1166
198	1012.1639
199	1124.6411
200	519.4
