Position	Value
-200	4247.9951
-199	8747.3021
-198	8679.4621
-197	8765.598
-196	8604.0977
-195	9024.5789
-194	8845.3084
-193	8955.0945
-192	8926.3921
-191	8979.8384
-190	8767.298
-189	9011.8211
-188	9283.5798
-187	9254.1142
-186	9236.3733
-185	9350.7529
-184	9240.1691
-183	9249.6011
-182	9136.1808
-181	9372.2339
-180	8920.09
-179	9128.1511
-178	9253.1854
-177	8998.9073
-176	9224.507
-175	8911.0429
-174	9081.6753
-173	8967.9982
-172	8835.7809
-171	8975.4353
-170	8828.8776
-169	8851.702
-168	8899.9252
-167	8955.8501
-166	8978.4748
-165	9313.5201
-164	9362.3945
-163	9284.5839
-162	9537.9906
-161	9577.4589
-160	9431.5468
-159	9687.3978
-158	9539.8236
-157	10133.8743
-156	9895.4454
-155	9644.3344
-154	10004.366
-153	10017.6466
-152	9721.0519
-151	9910.1601
-150	9750.6483
-149	9759.6899
-148	9352.9128
-147	9673.2491
-146	9407.6718
-145	9350.7979
-144	9451.8162
-143	9468.213
-142	9380.6984
-141	9458.302
-140	9321.1838
-139	9511.5385
-138	9194.2988
-137	9483.281
-136	9646.7734
-135	9882.9264
-134	9746.0786
-133	9657.0622
-132	10171.187
-131	10192.8728
-130	9945.0479
-129	10202.9734
-128	10326.5575
-127	10621.6107
-126	10818.6425
-125	10623.0413
-124	10597.3315
-123	10817.8156
-122	10783.8675
-121	10533.9597
-120	10190.8557
-119	10422.8753
-118	9830.9384
-117	10115.9549
-116	9762.094
-115	9925.03
-114	9909.501
-113	9713.4438
-112	9892.7492
-111	9735.5636
-110	9682.7812
-109	9992.1534
-108	9874.3064
-107	9837.2767
-106	10156.3717
-105	10009.3634
-104	10148.9024
-103	10468.5254
-102	10773.8372
-101	10705.0371
-100	10784.0838
-99	11391.9737
-98	11609.7873
-97	11607.6857
-96	11789.5537
-95	11645.4383
-94	12149.7974
-93	12011.8053
-92	11964.1719
-91	11879.9317
-90	11826.8453
-89	11347.2435
-88	11008.6391
-87	11031.7828
-86	10569.0387
-85	10637.9084
-84	10299.4282
-83	10139.1917
-82	10447.4811
-81	10306.7077
-80	10369.2205
-79	10218.2705
-78	10546.0633
-77	10397.2049
-76	10551.074
-75	10665.0916
-74	10636.4253
-73	10997.1388
-72	11254.8589
-71	11506.4631
-70	11533.6771
-69	12225.0908
-68	12344.2285
-67	12690.2706
-66	13510.2712
-65	13632.3537
-64	13840.4301
-63	13901.9149
-62	13725.3622
-61	14494.6039
-60	13909.2308
-59	13720.0056
-58	13436.2378
-57	12933.3676
-56	12535.787
-55	12060.0525
-54	11785.9725
-53	11357.4463
-52	11665.5467
-51	11487.8612
-50	11744.9197
-49	11267.4701
-48	11832.4264
-47	11742.0208
-46	11354.8465
-45	11843.7779
-44	11762.1309
-43	11650.179
-42	12331.744
-41	12109.2958
-40	12735.5632
-39	13006.0182
-38	13337.7413
-37	14035.8081
-36	14433.9612
-35	15638.781
-34	15348.4859
-33	16725.5586
-32	17017.4112
-31	16563.7522
-30	18338.0955
-29	17521.9799
-28	16014.5184
-27	15380.7621
-26	14220.7132
-25	13928.4193
-24	14199.2967
-23	14132.1579
-22	14801.9138
-21	15135.6581
-20	15222.5714
-19	15598.2279
-18	16400.5417
-17	15786.3501
-16	16473.2218
-15	16922.8635
-14	17345.5329
-13	18303.8551
-12	20005.9002
-11	20379.0766
-10	21532.3057
-9	23444.3456
-8	23689.7127
-7	26336.0472
-6	27611.6521
-5	32718.1907
-4	34206.7497
-3	41436.6582
-2	44775.0946
-1	46640.1901
0	235748.5371
1	46640.1901
2	44775.0946
3	41436.6582
4	34206.7497
5	32718.1907
6	27611.6521
7	26336.0472
8	23689.7127
9	23444.3456
10	21532.3057
11	20379.0766
12	20005.9002
13	18303.8551
14	17345.5329
15	16922.8635
16	16473.2218
17	15786.3501
18	16400.5417
19	15598.2279
20	15222.5714
21	15135.6581
22	14801.9138
23	14132.1579
24	14199.2967
25	13928.4193
26	14220.7132
27	15380.7621
28	16014.5184
29	17521.9799
30	18338.0955
31	16563.7522
32	17017.4112
33	16725.5586
34	15348.4859
35	15638.781
36	14433.9612
37	14035.8081
38	13337.7413
39	13006.0182
40	12735.5632
41	12109.2958
42	12331.744
43	11650.179
44	11762.1309
45	11843.7779
46	11354.8465
47	11742.0208
48	11832.4264
49	11267.4701
50	11744.9197
51	11487.8612
52	11665.5467
53	11357.4463
54	11785.9725
55	12060.0525
56	12535.787
57	12933.3676
58	13436.2378
59	13720.0056
60	13909.2308
61	14494.6039
62	13725.3622
63	13901.9149
64	13840.4301
65	13632.3537
66	13510.2712
67	12690.2706
68	12344.2285
69	12225.0908
70	11533.6771
71	11506.4631
72	11254.8589
73	10997.1388
74	10636.4253
75	10665.0916
76	10551.074
77	10397.2049
78	10546.0633
79	10218.2705
80	10369.2205
81	10306.7077
82	10447.4811
83	10139.1917
84	10299.4282
85	10637.9084
86	10569.0387
87	11031.7828
88	11008.6391
89	11347.2435
90	11826.8453
91	11879.9317
92	11964.1719
93	12011.8053
94	12149.7974
95	11645.4383
96	11789.5537
97	11607.6857
98	11609.7873
99	11391.9737
100	10784.0838
101	10705.0371
102	10773.8372
103	10468.5254
104	10148.9024
105	10009.3634
106	10156.3717
107	9837.2767
108	9874.3064
109	9992.1534
110	9682.7812
111	9735.5636
112	9892.7492
113	9713.4438
114	9909.501
115	9925.03
116	9762.094
117	10115.9549
118	9830.9384
119	10422.8753
120	10190.8557
121	10533.9597
122	10783.8675
123	10817.8156
124	10597.3315
125	10623.0413
126	10818.6425
127	10621.6107
128	10326.5575
129	10202.9734
130	9945.0479
131	10192.8728
132	10171.187
133	9657.0622
134	9746.0786
135	9882.9264
136	9646.7734
137	9483.281
138	9194.2988
139	9511.5385
140	9321.1838
141	9458.302
142	9380.6984
143	9468.213
144	9451.8162
145	9350.7979
146	9407.6718
147	9673.2491
148	9352.9128
149	9759.6899
150	9750.6483
151	9910.1601
152	9721.0519
153	10017.6466
154	10004.366
155	9644.3344
156	9895.4454
157	10133.8743
158	9539.8236
159	9687.3978
160	9431.5468
161	9577.4589
162	9537.9906
163	9284.5839
164	9362.3945
165	9313.5201
166	8978.4748
167	8955.8501
168	8899.9252
169	8851.702
170	8828.8776
171	8975.4353
172	8835.7809
173	8967.9982
174	9081.6753
175	8911.0429
176	9224.507
177	8998.9073
178	9253.1854
179	9128.1511
180	8920.09
181	9372.2339
182	9136.1808
183	9249.6011
184	9240.1691
185	9350.7529
186	9236.3733
187	9254.1142
188	9283.5798
189	9011.8211
190	8767.298
191	8979.8384
192	8926.3921
193	8955.0945
194	8845.3084
195	9024.5789
196	8604.0977
197	8765.598
198	8679.4621
199	8747.3021
200	4247.9951
