Position	Value
-200	1109.6951
-199	2204.6439
-198	2239.0359
-197	2272.9123
-196	2422.7481
-195	2425.3619
-194	2318.0182
-193	2488.6163
-192	2468.5749
-191	2494.5541
-190	2473.5162
-189	2625.8634
-188	2483.6561
-187	2486.39
-186	2512.409
-185	2611.6523
-184	2630.8025
-183	2550.1961
-182	2395.1291
-181	2433.3439
-180	2460.3259
-179	2400.7392
-178	2482.7757
-177	2364.2058
-176	2317.5793
-175	2354.948
-174	2338.2584
-173	2403.8813
-172	2423.9209
-171	2372.7027
-170	2398.0061
-169	2457.7402
-168	2490.9768
-167	2484.2476
-166	2530.0243
-165	2639.5239
-164	2402.853
-163	2528.5204
-162	2569.9506
-161	2646.3391
-160	2625.4948
-159	2581.1419
-158	2657.8584
-157	2697.7753
-156	2681.6145
-155	2662.5348
-154	2863.8874
-153	2775.2548
-152	2709.469
-151	2656.2372
-150	2587.9221
-149	2673.5078
-148	2310.3937
-147	2615.1103
-146	2493.222
-145	2464.3238
-144	2600.4687
-143	2625.715
-142	2517.1013
-141	2603.0316
-140	2536.7482
-139	2678.3969
-138	2517.4476
-137	2527.7524
-136	2652.8711
-135	2785.1365
-134	2769.8732
-133	2862.736
-132	2722.0881
-131	2723.2698
-130	2878.4904
-129	2787.0237
-128	2811.1531
-127	2886.8831
-126	2855.2951
-125	2990.5065
-124	2789.3585
-123	2923.2402
-122	2977.7403
-121	2815.0931
-120	2912.3734
-119	2801.0076
-118	2601.8556
-117	2656.7129
-116	2659.6
-115	2608.9231
-114	2546.2134
-113	2510.6473
-112	2738.1031
-111	2919.8826
-110	2700.8151
-109	2947.8341
-108	2887.6878
-107	2865.5885
-106	2886.5397
-105	2984.4863
-104	2909.5989
-103	3082.5284
-102	3133.0962
-101	3268.4361
-100	3305.3067
-99	3348.2927
-98	3523.7862
-97	3305.8338
-96	3591.5489
-95	3686.6952
-94	3719.7636
-93	3757.5944
-92	3844.9109
-91	3682.1828
-90	3339.3023
-89	3668.4839
-88	3215.4122
-87	3273.7732
-86	2947.522
-85	3017.4775
-84	2695.4279
-83	2882.1077
-82	2923.2514
-81	2830.1336
-80	2840.8809
-79	2791.1206
-78	3026.7172
-77	2934.678
-76	3029.7668
-75	3116.8601
-74	3102.9275
-73	3354.303
-72	3328.6564
-71	3585.2682
-70	3639.0683
-69	3944.3759
-68	4109.9362
-67	4108.4002
-66	4503.0919
-65	4495.9447
-64	4453.9547
-63	4632.8371
-62	4639.681
-61	4981.3171
-60	4817.8201
-59	4582.6192
-58	4584.3566
-57	4047.1624
-56	3716.7073
-55	3724.3719
-54	3264.7422
-53	3333.2808
-52	3294.5917
-51	3318.1286
-50	3399.3682
-49	3274.8894
-48	3483.6907
-47	3217.8091
-46	3308.8591
-45	3579.2574
-44	3570.7496
-43	3660.8082
-42	3678.6498
-41	3828.4626
-40	4337.1529
-39	4055.5086
-38	4732.6577
-37	4608.1895
-36	5367.1577
-35	6002.3685
-34	5859.8558
-33	6796.6755
-32	6659.0527
-31	6621.861
-30	6790.6439
-29	6839.3184
-28	5903.4609
-27	5411.8308
-26	5135.0499
-25	4708.5508
-24	4570.3527
-23	4489.8268
-22	4994.9719
-21	5047.3349
-20	4989.8409
-19	4899.2989
-18	5320.9999
-17	5425.637
-16	5479.9622
-15	5433.3146
-14	5843.8866
-13	6023.8138
-12	6598.3818
-11	6961.8768
-10	7458.5304
-9	8560.3466
-8	8622.0034
-7	10025.1085
-6	10545.015
-5	12795.572
-4	14397.7622
-3	16890.8498
-2	18373.5396
-1	20226.8296
0	115644.393
1	20226.8296
2	18373.5396
3	16890.8498
4	14397.7622
5	12795.572
6	10545.015
7	10025.1085
8	8622.0034
9	8560.3466
10	7458.5304
11	6961.8768
12	6598.3818
13	6023.8138
14	5843.8866
15	5433.3146
16	5479.9622
17	5425.637
18	5320.9999
19	4899.2989
20	4989.8409
21	5047.3349
22	4994.9719
23	4489.8268
24	4570.3527
25	4708.5508
26	5135.0499
27	5411.8308
28	5903.4609
29	6839.3184
30	6790.6439
31	6621.861
32	6659.0527
33	6796.6755
34	5859.8558
35	6002.3685
36	5367.1577
37	4608.1895
38	4732.6577
39	4055.5086
40	4337.1529
41	3828.4626
42	3678.6498
43	3660.8082
44	3570.7496
45	3579.2574
46	3308.8591
47	3217.8091
48	3483.6907
49	3274.8894
50	3399.3682
51	3318.1286
52	3294.5917
53	3333.2808
54	3264.7422
55	3724.3719
56	3716.7073
57	4047.1624
58	4584.3566
59	4582.6192
60	4817.8201
61	4981.3171
62	4639.681
63	4632.8371
64	4453.9547
65	4495.9447
66	4503.0919
67	4108.4002
68	4109.9362
69	3944.3759
70	3639.0683
71	3585.2682
72	3328.6564
73	3354.303
74	3102.9275
75	3116.8601
76	3029.7668
77	2934.678
78	3026.7172
79	2791.1206
80	2840.8809
81	2830.1336
82	2923.2514
83	2882.1077
84	2695.4279
85	3017.4775
86	2947.522
87	3273.7732
88	3215.4122
89	3668.4839
90	3339.3023
91	3682.1828
92	3844.9109
93	3757.5944
94	3719.7636
95	3686.6952
96	3591.5489
97	3305.8338
98	3523.7862
99	3348.2927
100	3305.3067
101	3268.4361
102	3133.0962
103	3082.5284
104	2909.5989
105	2984.4863
106	2886.5397
107	2865.5885
108	2887.6878
109	2947.8341
110	2700.8151
111	2919.8826
112	2738.1031
113	2510.6473
114	2546.2134
115	2608.9231
116	2659.6
117	2656.7129
118	2601.8556
119	2801.0076
120	2912.3734
121	2815.0931
122	2977.7403
123	2923.2402
124	2789.3585
125	2990.5065
126	2855.2951
127	2886.8831
128	2811.1531
129	2787.0237
130	2878.4904
131	2723.2698
132	2722.0881
133	2862.736
134	2769.8732
135	2785.1365
136	2652.8711
137	2527.7524
138	2517.4476
139	2678.3969
140	2536.7482
141	2603.0316
142	2517.1013
143	2625.715
144	2600.4687
145	2464.3238
146	2493.222
147	2615.1103
148	2310.3937
149	2673.5078
150	2587.9221
151	2656.2372
152	2709.469
153	2775.2548
154	2863.8874
155	2662.5348
156	2681.6145
157	2697.7753
158	2657.8584
159	2581.1419
160	2625.4948
161	2646.3391
162	2569.9506
163	2528.5204
164	2402.853
165	2639.5239
166	2530.0243
167	2484.2476
168	2490.9768
169	2457.7402
170	2398.0061
171	2372.7027
172	2423.9209
173	2403.8813
174	2338.2584
175	2354.948
176	2317.5793
177	2364.2058
178	2482.7757
179	2400.7392
180	2460.3259
181	2433.3439
182	2395.1291
183	2550.1961
184	2630.8025
185	2611.6523
186	2512.409
187	2486.39
188	2483.6561
189	2625.8634
190	2473.5162
191	2494.5541
192	2468.5749
193	2488.6163
194	2318.0182
195	2425.3619
196	2422.7481
197	2272.9123
198	2239.0359
199	2204.6439
200	1109.6951
