Position	Value
-200	1103.8555
-199	2439.2394
-198	2177.7962
-197	2262.4184
-196	2283.2528
-195	2287.9891
-194	2341.5448
-193	2299.7611
-192	2245.655
-191	2322.495
-190	2347.5506
-189	2488.4015
-188	2540.8178
-187	2361.0216
-186	2374.6118
-185	2315.4529
-184	2468.577
-183	2385.44
-182	2254.9629
-181	2288.0942
-180	2229.7932
-179	2393.2217
-178	2330.3837
-177	2150.4648
-176	2209.1483
-175	2288.0101
-174	2235.5919
-173	2288.7376
-172	2276.8088
-171	2273.0933
-170	2229.9476
-169	2251.3776
-168	2109.8002
-167	2179.2536
-166	2303.5993
-165	2399.6531
-164	2465.1513
-163	2488.688
-162	2369.4773
-161	2454.341
-160	2396.9115
-159	2412.8791
-158	2373.1218
-157	2577.2418
-156	2540.2201
-155	2483.5666
-154	2589.0924
-153	2490.3424
-152	2470.7692
-151	2600.3429
-150	2544.135
-149	2364.4464
-148	2307.1004
-147	2417.8801
-146	2314.302
-145	2271.2051
-144	2373.6439
-143	2425.6901
-142	2324.1361
-141	2419.1881
-140	2388.7697
-139	2387.8648
-138	2361.4948
-137	2396.2283
-136	2410.199
-135	2605.5506
-134	2536.3295
-133	2431.3201
-132	2584.6039
-131	2428.6911
-130	2632.0986
-129	2633.7886
-128	2642.8202
-127	2664.7692
-126	2698.7838
-125	2812.1132
-124	2632.0049
-123	2661.9328
-122	2589.6752
-121	2610.1671
-120	2536.4797
-119	2529.6675
-118	2597.3115
-117	2454.8149
-116	2410.8176
-115	2372.726
-114	2499.3244
-113	2304.246
-112	2486.8645
-111	2388.1642
-110	2291.2285
-109	2399.7672
-108	2476.089
-107	2474.731
-106	2594.8863
-105	2544.5805
-104	2538.3941
-103	2615.9061
-102	2734.7326
-101	2692.0931
-100	2853.3506
-99	2941.4854
-98	3038.228
-97	3022.7499
-96	3065.0103
-95	3182.7873
-94	3002.9974
-93	3168.55
-92	2932.7176
-91	2922.1942
-90	3009.6637
-89	2797.2987
-88	2860.5481
-87	2716.5219
-86	2869.7143
-85	2781.2887
-84	2687.9367
-83	2654.6046
-82	2615.5623
-81	2655.1331
-80	2676.8534
-79	2715.1747
-78	2658.4267
-77	2652.5474
-76	2721.2145
-75	2670.4909
-74	2770.546
-73	2952.5866
-72	2788.4848
-71	2936.1066
-70	3110.4307
-69	3149.289
-68	3346.9995
-67	3402.336
-66	3570.9971
-65	3649.7398
-64	3653.9165
-63	3633.5375
-62	3641.2718
-61	3711.9153
-60	3693.3867
-59	3541.1551
-58	3437.0127
-57	3248.8507
-56	3071.7294
-55	3079.1952
-54	3041.3944
-53	2891.8456
-52	2946.1819
-51	2828.2283
-50	2785.9946
-49	3013.686
-48	3031.1623
-47	2981.6918
-46	3001.4325
-45	3171.494
-44	3051.9938
-43	3068.7709
-42	3065.4302
-41	3107.596
-40	3262.1049
-39	3398.2826
-38	3735.1911
-37	3743.5562
-36	3957.146
-35	4203.4147
-34	4192.0424
-33	4655.9595
-32	4682.5309
-31	4774.61
-30	4959.9314
-29	4995.9068
-28	4603.0945
-27	3985.7874
-26	3666.9706
-25	3590.9702
-24	3766.091
-23	3762.6633
-22	4207.8986
-21	4302.1497
-20	4074.546
-19	4391.4771
-18	4639.5299
-17	4542.7964
-16	4602.7443
-15	4678.2674
-14	4878.5982
-13	4956.7599
-12	5779.9698
-11	5776.8872
-10	5956.7161
-9	6392.2986
-8	6541.0287
-7	7397.4091
-6	8025.2769
-5	9959.5452
-4	11080.8042
-3	13667.1906
-2	14960.3232
-1	18514.9592
0	113499.8878
1	18514.9592
2	14960.3232
3	13667.1906
4	11080.8042
5	9959.5452
6	8025.2769
7	7397.4091
8	6541.0287
9	6392.2986
10	5956.7161
11	5776.8872
12	5779.9698
13	4956.7599
14	4878.5982
15	4678.2674
16	4602.7443
17	4542.7964
18	4639.5299
19	4391.4771
20	4074.546
21	4302.1497
22	4207.8986
23	3762.6633
24	3766.091
25	3590.9702
26	3666.9706
27	3985.7874
28	4603.0945
29	4995.9068
30	4959.9314
31	4774.61
32	4682.5309
33	4655.9595
34	4192.0424
35	4203.4147
36	3957.146
37	3743.5562
38	3735.1911
39	3398.2826
40	3262.1049
41	3107.596
42	3065.4302
43	3068.7709
44	3051.9938
45	3171.494
46	3001.4325
47	2981.6918
48	3031.1623
49	3013.686
50	2785.9946
51	2828.2283
52	2946.1819
53	2891.8456
54	3041.3944
55	3079.1952
56	3071.7294
57	3248.8507
58	3437.0127
59	3541.1551
60	3693.3867
61	3711.9153
62	3641.2718
63	3633.5375
64	3653.9165
65	3649.7398
66	3570.9971
67	3402.336
68	3346.9995
69	3149.289
70	3110.4307
71	2936.1066
72	2788.4848
73	2952.5866
74	2770.546
75	2670.4909
76	2721.2145
77	2652.5474
78	2658.4267
79	2715.1747
80	2676.8534
81	2655.1331
82	2615.5623
83	2654.6046
84	2687.9367
85	2781.2887
86	2869.7143
87	2716.5219
88	2860.5481
89	2797.2987
90	3009.6637
91	2922.1942
92	2932.7176
93	3168.55
94	3002.9974
95	3182.7873
96	3065.0103
97	3022.7499
98	3038.228
99	2941.4854
100	2853.3506
101	2692.0931
102	2734.7326
103	2615.9061
104	2538.3941
105	2544.5805
106	2594.8863
107	2474.731
108	2476.089
109	2399.7672
110	2291.2285
111	2388.1642
112	2486.8645
113	2304.246
114	2499.3244
115	2372.726
116	2410.8176
117	2454.8149
118	2597.3115
119	2529.6675
120	2536.4797
121	2610.1671
122	2589.6752
123	2661.9328
124	2632.0049
125	2812.1132
126	2698.7838
127	2664.7692
128	2642.8202
129	2633.7886
130	2632.0986
131	2428.6911
132	2584.6039
133	2431.3201
134	2536.3295
135	2605.5506
136	2410.199
137	2396.2283
138	2361.4948
139	2387.8648
140	2388.7697
141	2419.1881
142	2324.1361
143	2425.6901
144	2373.6439
145	2271.2051
146	2314.302
147	2417.8801
148	2307.1004
149	2364.4464
150	2544.135
151	2600.3429
152	2470.7692
153	2490.3424
154	2589.0924
155	2483.5666
156	2540.2201
157	2577.2418
158	2373.1218
159	2412.8791
160	2396.9115
161	2454.341
162	2369.4773
163	2488.688
164	2465.1513
165	2399.6531
166	2303.5993
167	2179.2536
168	2109.8002
169	2251.3776
170	2229.9476
171	2273.0933
172	2276.8088
173	2288.7376
174	2235.5919
175	2288.0101
176	2209.1483
177	2150.4648
178	2330.3837
179	2393.2217
180	2229.7932
181	2288.0942
182	2254.9629
183	2385.44
184	2468.577
185	2315.4529
186	2374.6118
187	2361.0216
188	2540.8178
189	2488.4015
190	2347.5506
191	2322.495
192	2245.655
193	2299.7611
194	2341.5448
195	2287.9891
196	2283.2528
197	2262.4184
198	2177.7962
199	2439.2394
200	1103.8555
