Position	Value
-200	171412.1739
-199	341971.2977
-198	343044.4661
-197	343736.932
-196	344060.1111
-195	345679.9799
-194	346019.1361
-193	345658.958
-192	346592.159
-191	345279.5519
-190	344774.6264
-189	345375.467
-188	344997.7175
-187	344743.6402
-186	345908.4324
-185	345113.2313
-184	344542.0516
-183	345038.1518
-182	345376.7003
-181	345141.8353
-180	345925.1792
-179	346396.6001
-178	346494.9217
-177	347448.4851
-176	348129.2011
-175	348062.0044
-174	347551.2479
-173	346951.6806
-172	346833.6558
-171	348493.0166
-170	349064.9547
-169	349627.8937
-168	351302.9821
-167	351332.5016
-166	351645.8211
-165	352803.3904
-164	354419.9778
-163	355191.0238
-162	357368.1791
-161	357153.533
-160	357678.5853
-159	358592.0064
-158	357269.4978
-157	358073.0414
-156	359399.6053
-155	359192.686
-154	359246.1039
-153	361183.6525
-152	361261.6943
-151	360835.2519
-150	363019.4095
-149	362556.5827
-148	362985.3462
-147	364247.5064
-146	364547.5806
-145	363416.8496
-144	365086.3597
-143	363887.7054
-142	363689.5644
-141	365024.5898
-140	365385.0342
-139	366067.2416
-138	367095.4792
-137	366611.2209
-136	367311.5078
-135	368663.9353
-134	368327.0369
-133	369183.5759
-132	370803.9786
-131	370707.6573
-130	370210.7588
-129	369922.1376
-128	369414.2161
-127	370082.5451
-126	369914.6497
-125	369989.8003
-124	370864.9844
-123	375493.2141
-122	374286.8127
-121	375669.4983
-120	377026.139
-119	376447.1528
-118	378113.9241
-117	378378.1211
-116	379601.1268
-115	380060.1471
-114	382619.4116
-113	382686.5698
-112	383617.1338
-111	383523.0438
-110	384188.0726
-109	383778.688
-108	384396.895
-107	384039.8201
-106	385016.8225
-105	386616.714
-104	386532.4575
-103	386803.6691
-102	389004.5191
-101	387370.5513
-100	387121.1363
-99	389312.051
-98	389540.8532
-97	388971.7726
-96	391208.6863
-95	390592.1938
-94	392571.9064
-93	393832.0618
-92	394325.0563
-91	395579.1703
-90	397749.2445
-89	399363.8658
-88	401627.8473
-87	403585.8668
-86	402850.3653
-85	405446.3144
-84	406217.6915
-83	406385.2187
-82	406701.3903
-81	409041.5335
-80	410680.4995
-79	413578.6783
-78	415595.2386
-77	415210.5332
-76	416994.9137
-75	417376.5435
-74	418466.6628
-73	420295.6704
-72	420659.1733
-71	419785.1306
-70	420145.5875
-69	421323.715
-68	421827.1742
-67	423461.505
-66	425801.5022
-65	425196.518
-64	427198.9838
-63	428137.5978
-62	428547.3403
-61	431832.4454
-60	435305.7202
-59	434975.9126
-58	436808.0673
-57	440554.7936
-56	439595.7775
-55	441097.1107
-54	442320.3053
-53	441079.2264
-52	441621.9547
-51	444290.3873
-50	444315.22
-49	445912.9241
-48	448591.2054
-47	450555.3776
-46	452924.1906
-45	457071.764
-44	457405.2411
-43	459289.3863
-42	463585.3805
-41	464703.1036
-40	467547.2841
-39	470605.3611
-38	473592.1388
-37	477268.2002
-36	483330.7274
-35	485998.1178
-34	490698.5256
-33	500629.9256
-32	505986.3408
-31	508127.3652
-30	508425.4306
-29	502381.1118
-28	495637.1086
-27	488511.8211
-26	482024.0179
-25	478269.439
-24	471398.5324
-23	458975.6171
-22	459474.2626
-21	466345.7991
-20	472243.69
-19	482525.5094
-18	498430.0803
-17	510975.5051
-16	528460.1002
-15	549146.2467
-14	573760.4054
-13	602374.9372
-12	638249.1585
-11	675876.7788
-10	720225.0394
-9	773892.5651
-8	833568.5001
-7	904463.9848
-6	991355.8839
-5	1089705.8072
-4	1214239.2872
-3	1343951.5784
-2	1485464.8039
-1	1719838.7513
0	3046798.3911
1	1719838.7513
2	1485464.8039
3	1343951.5784
4	1214239.2872
5	1089705.8072
6	991355.8839
7	904463.9848
8	833568.5001
9	773892.5651
10	720225.0394
11	675876.7788
12	638249.1585
13	602374.9372
14	573760.4054
15	549146.2467
16	528460.1002
17	510975.5051
18	498430.0803
19	482525.5094
20	472243.69
21	466345.7991
22	459474.2626
23	458975.6171
24	471398.5324
25	478269.439
26	482024.0179
27	488511.8211
28	495637.1086
29	502381.1118
30	508425.4306
31	508127.3652
32	505986.3408
33	500629.9256
34	490698.5256
35	485998.1178
36	483330.7274
37	477268.2002
38	473592.1388
39	470605.3611
40	467547.2841
41	464703.1036
42	463585.3805
43	459289.3863
44	457405.2411
45	457071.764
46	452924.1906
47	450555.3776
48	448591.2054
49	445912.9241
50	444315.22
51	444290.3873
52	441621.9547
53	441079.2264
54	442320.3053
55	441097.1107
56	439595.7775
57	440554.7936
58	436808.0673
59	434975.9126
60	435305.7202
61	431832.4454
62	428547.3403
63	428137.5978
64	427198.9838
65	425196.518
66	425801.5022
67	423461.505
68	421827.1742
69	421323.715
70	420145.5875
71	419785.1306
72	420659.1733
73	420295.6704
74	418466.6628
75	417376.5435
76	416994.9137
77	415210.5332
78	415595.2386
79	413578.6783
80	410680.4995
81	409041.5335
82	406701.3903
83	406385.2187
84	406217.6915
85	405446.3144
86	402850.3653
87	403585.8668
88	401627.8473
89	399363.8658
90	397749.2445
91	395579.1703
92	394325.0563
93	393832.0618
94	392571.9064
95	390592.1938
96	391208.6863
97	388971.7726
98	389540.8532
99	389312.051
100	387121.1363
101	387370.5513
102	389004.5191
103	386803.6691
104	386532.4575
105	386616.714
106	385016.8225
107	384039.8201
108	384396.895
109	383778.688
110	384188.0726
111	383523.0438
112	383617.1338
113	382686.5698
114	382619.4116
115	380060.1471
116	379601.1268
117	378378.1211
118	378113.9241
119	376447.1528
120	377026.139
121	375669.4983
122	374286.8127
123	375493.2141
124	370864.9844
125	369989.8003
126	369914.6497
127	370082.5451
128	369414.2161
129	369922.1376
130	370210.7588
131	370707.6573
132	370803.9786
133	369183.5759
134	368327.0369
135	368663.9353
136	367311.5078
137	366611.2209
138	367095.4792
139	366067.2416
140	365385.0342
141	365024.5898
142	363689.5644
143	363887.7054
144	365086.3597
145	363416.8496
146	364547.5806
147	364247.5064
148	362985.3462
149	362556.5827
150	363019.4095
151	360835.2519
152	361261.6943
153	361183.6525
154	359246.1039
155	359192.686
156	359399.6053
157	358073.0414
158	357269.4978
159	358592.0064
160	357678.5853
161	357153.533
162	357368.1791
163	355191.0238
164	354419.9778
165	352803.3904
166	351645.8211
167	351332.5016
168	351302.9821
169	349627.8937
170	349064.9547
171	348493.0166
172	346833.6558
173	346951.6806
174	347551.2479
175	348062.0044
176	348129.2011
177	347448.4851
178	346494.9217
179	346396.6001
180	345925.1792
181	345141.8353
182	345376.7003
183	345038.1518
184	344542.0516
185	345113.2313
186	345908.4324
187	344743.6402
188	344997.7175
189	345375.467
190	344774.6264
191	345279.5519
192	346592.159
193	345658.958
194	346019.1361
195	345679.9799
196	344060.1111
197	343736.932
198	343044.4661
199	341971.2977
200	171412.1739
