Position	Value
-200	12798.5387
-199	25869.2003
-198	26585.662
-197	26103.8242
-196	26071.7776
-195	26250.4105
-194	26573.8391
-193	26424.556
-192	26814.6795
-191	26951.9308
-190	26390.1988
-189	26842.0571
-188	26810.0829
-187	26550.8211
-186	27079.7944
-185	26951.9998
-184	26717.3207
-183	26403.5684
-182	26508.0596
-181	26672.3295
-180	26482.9625
-179	26659.1594
-178	26572.2518
-177	25954.3137
-176	26214.9404
-175	26430.921
-174	26650.9614
-173	27023.2713
-172	26909.3048
-171	27484.3633
-170	26954.3515
-169	27383.8569
-168	27499.2017
-167	27764.7442
-166	27465.3278
-165	28095.5832
-164	27936.668
-163	27995.6356
-162	28330.698
-161	28000.8859
-160	27969.5794
-159	28883.029
-158	27846.9907
-157	28173.2842
-156	29122.7861
-155	28352.3986
-154	28685.452
-153	29016.2044
-152	28373.6531
-151	28403.5764
-150	29250.0504
-149	28654.8847
-148	28092.932
-147	28994.2049
-146	27823.1268
-145	28048.079
-144	28826.0422
-143	28676.4498
-142	28103.3746
-141	28610.4441
-140	28600.9201
-139	28703.7702
-138	28954.1105
-137	28686.476
-136	28483.5117
-135	29731.3091
-134	29393.0708
-133	28268.2468
-132	29829.1457
-131	29638.7509
-130	29475.8912
-129	30383.1405
-128	30648.9277
-127	30070.3551
-126	30583.8029
-125	30205.8204
-124	30203.9101
-123	30482.9688
-122	30144.4698
-121	30048.7285
-120	30019.138
-119	29756.8774
-118	29274.6238
-117	29974.2443
-116	29342.2898
-115	29399.6098
-114	28725.1399
-113	28449.4317
-112	29157.4764
-111	29465.9512
-110	29356.3549
-109	29522.8817
-108	28965.2512
-107	29385.8049
-106	29940.6026
-105	30246.6728
-104	30708.8881
-103	31077.1258
-102	31774.193
-101	31408.6695
-100	32245.6809
-99	32681.0708
-98	34305.8069
-97	32839.5325
-96	33290.1624
-95	34067.1645
-94	33589.0319
-93	34331.7019
-92	33593.5132
-91	33906.8771
-90	33259.217
-89	32932.9188
-88	32754.9637
-87	32070.5686
-86	31599.0826
-85	31537.0647
-84	31735.0578
-83	31373.0176
-82	31553.5629
-81	30960.4981
-80	31258.9006
-79	30837.9752
-78	31340.4383
-77	31151.7891
-76	31014.9461
-75	31180.1546
-74	31736.5434
-73	32928.9667
-72	32403.018
-71	33639.5999
-70	34166.5526
-69	35464.9695
-68	36104.9152
-67	36288.5579
-66	38171.1548
-65	37938.1982
-64	38550.2871
-63	39269.7793
-62	38899.9778
-61	39710.6309
-60	39015.5818
-59	38027.4005
-58	37358.5764
-57	36654.1404
-56	35561.6255
-55	35118.23
-54	35202.2931
-53	33921.1348
-52	34799.9053
-51	34270.863
-50	34721.9258
-49	33545.3342
-48	34035.7539
-47	34140.5504
-46	34276.3326
-45	35040.1072
-44	34120.8104
-43	35422.4692
-42	36472.4095
-41	35792.8301
-40	36838.0252
-39	37918.2435
-38	39493.9334
-37	40449.8873
-36	41106.4232
-35	42975.4662
-34	44217.7751
-33	46784.1466
-32	47118.8155
-31	47499.8395
-30	49214.5675
-29	47159.6922
-28	43846.6893
-27	42680.5243
-26	39496.7273
-25	39826.4039
-24	41066.5229
-23	41654.9683
-22	42673.8101
-21	44745.9404
-20	43811.1751
-19	44178.4642
-18	46131.6022
-17	46509.4318
-16	47652.9213
-15	48510.6768
-14	49692.8281
-13	52156.8159
-12	56583.2927
-11	57063.8382
-10	59081.6873
-9	66359.3494
-8	66716.3226
-7	71759.6072
-6	75363.0052
-5	87958.6565
-4	92132.7441
-3	105004.4939
-2	98995.4947
-1	95921.2998
0	644127.0035
1	95921.2998
2	98995.4947
3	105004.4939
4	92132.7441
5	87958.6565
6	75363.0052
7	71759.6072
8	66716.3226
9	66359.3494
10	59081.6873
11	57063.8382
12	56583.2927
13	52156.8159
14	49692.8281
15	48510.6768
16	47652.9213
17	46509.4318
18	46131.6022
19	44178.4642
20	43811.1751
21	44745.9404
22	42673.8101
23	41654.9683
24	41066.5229
25	39826.4039
26	39496.7273
27	42680.5243
28	43846.6893
29	47159.6922
30	49214.5675
31	47499.8395
32	47118.8155
33	46784.1466
34	44217.7751
35	42975.4662
36	41106.4232
37	40449.8873
38	39493.9334
39	37918.2435
40	36838.0252
41	35792.8301
42	36472.4095
43	35422.4692
44	34120.8104
45	35040.1072
46	34276.3326
47	34140.5504
48	34035.7539
49	33545.3342
50	34721.9258
51	34270.863
52	34799.9053
53	33921.1348
54	35202.2931
55	35118.23
56	35561.6255
57	36654.1404
58	37358.5764
59	38027.4005
60	39015.5818
61	39710.6309
62	38899.9778
63	39269.7793
64	38550.2871
65	37938.1982
66	38171.1548
67	36288.5579
68	36104.9152
69	35464.9695
70	34166.5526
71	33639.5999
72	32403.018
73	32928.9667
74	31736.5434
75	31180.1546
76	31014.9461
77	31151.7891
78	31340.4383
79	30837.9752
80	31258.9006
81	30960.4981
82	31553.5629
83	31373.0176
84	31735.0578
85	31537.0647
86	31599.0826
87	32070.5686
88	32754.9637
89	32932.9188
90	33259.217
91	33906.8771
92	33593.5132
93	34331.7019
94	33589.0319
95	34067.1645
96	33290.1624
97	32839.5325
98	34305.8069
99	32681.0708
100	32245.6809
101	31408.6695
102	31774.193
103	31077.1258
104	30708.8881
105	30246.6728
106	29940.6026
107	29385.8049
108	28965.2512
109	29522.8817
110	29356.3549
111	29465.9512
112	29157.4764
113	28449.4317
114	28725.1399
115	29399.6098
116	29342.2898
117	29974.2443
118	29274.6238
119	29756.8774
120	30019.138
121	30048.7285
122	30144.4698
123	30482.9688
124	30203.9101
125	30205.8204
126	30583.8029
127	30070.3551
128	30648.9277
129	30383.1405
130	29475.8912
131	29638.7509
132	29829.1457
133	28268.2468
134	29393.0708
135	29731.3091
136	28483.5117
137	28686.476
138	28954.1105
139	28703.7702
140	28600.9201
141	28610.4441
142	28103.3746
143	28676.4498
144	28826.0422
145	28048.079
146	27823.1268
147	28994.2049
148	28092.932
149	28654.8847
150	29250.0504
151	28403.5764
152	28373.6531
153	29016.2044
154	28685.452
155	28352.3986
156	29122.7861
157	28173.2842
158	27846.9907
159	28883.029
160	27969.5794
161	28000.8859
162	28330.698
163	27995.6356
164	27936.668
165	28095.5832
166	27465.3278
167	27764.7442
168	27499.2017
169	27383.8569
170	26954.3515
171	27484.3633
172	26909.3048
173	27023.2713
174	26650.9614
175	26430.921
176	26214.9404
177	25954.3137
178	26572.2518
179	26659.1594
180	26482.9625
181	26672.3295
182	26508.0596
183	26403.5684
184	26717.3207
185	26951.9998
186	27079.7944
187	26550.8211
188	26810.0829
189	26842.0571
190	26390.1988
191	26951.9308
192	26814.6795
193	26424.556
194	26573.8391
195	26250.4105
196	26071.7776
197	26103.8242
198	26585.662
199	25869.2003
200	12798.5387
