Position	Value
-200	901.2821
-199	1864.561
-198	1842.3925
-197	1921.7152
-196	2019.5452
-195	1936.4105
-194	1892.5107
-193	2070.8769
-192	2041.0486
-191	2024.0756
-190	2100.9038
-189	2169.8377
-188	1989.0858
-187	2066.3174
-186	2137.2825
-185	2090.21
-184	2164.5029
-183	2149.293
-182	1928.9962
-181	2092.8869
-180	2006.5624
-179	2114.9679
-178	2102.2859
-177	2099.3309
-176	2000.3342
-175	2002.7334
-174	1953.9531
-173	2016.9011
-172	1978.1355
-171	2089.3133
-170	1967.1648
-169	2102.4365
-168	2019.7148
-167	2035.5988
-166	2093.4809
-165	2191.9665
-164	2111.9237
-163	2129.526
-162	2150.8435
-161	2235.7069
-160	2293.6177
-159	2363.8276
-158	2241.9502
-157	2378.419
-156	2312.5729
-155	2278.674
-154	2346.6687
-153	2309.8166
-152	2403.2091
-151	2215.0905
-150	2364.6661
-149	2345.5721
-148	2149.4869
-147	2223.7481
-146	2120.4325
-145	2173.5146
-144	2172.8644
-143	2270.8406
-142	2125.5721
-141	2182.7004
-140	2214.5436
-139	2127.1442
-138	2229.4725
-137	2195.5448
-136	2283.4221
-135	2310.7813
-134	2407.7764
-133	2489.1377
-132	2275.0278
-131	2399.2347
-130	2432.1557
-129	2350.781
-128	2448.349
-127	2504.1954
-126	2646.9371
-125	2640.1291
-124	2547.5847
-123	2623.7443
-122	2629.5823
-121	2514.8057
-120	2354.7354
-119	2479.2882
-118	2202.4884
-117	2313.5752
-116	2313.546
-115	2170.9622
-114	2146.1014
-113	2205.3735
-112	2199.5254
-111	2332.1989
-110	2254.3505
-109	2309.6423
-108	2178.6193
-107	2284.4519
-106	2285.0657
-105	2400.1746
-104	2490.609
-103	2572.9557
-102	2609.9755
-101	2757.381
-100	2701.4512
-99	3026.7405
-98	3070.7255
-97	2962.488
-96	3172.7721
-95	3423.2189
-94	3295.6787
-93	3420.2606
-92	3363.5091
-91	3244.5639
-90	2935.5212
-89	2944.3999
-88	2698.7241
-87	2748.8399
-86	2496.4131
-85	2611.5741
-84	2256.1863
-83	2206.0214
-82	2262.7731
-81	2165.3895
-80	2276.5197
-79	2237.5848
-78	2404.6001
-77	2438.886
-76	2499.9494
-75	2484.8831
-74	2543.734
-73	2793.896
-72	2824.2886
-71	3127.7692
-70	3229.2287
-69	3477.6106
-68	3565.67
-67	3786.8205
-66	4056.4022
-65	3876.1952
-64	4169.4534
-63	4174.2768
-62	4263.7047
-61	4577.9141
-60	4333.3255
-59	4075.9829
-58	3967.3534
-57	3622.5898
-56	3237.3257
-55	3179.1735
-54	2930.8049
-53	2655.6007
-52	2657.3021
-51	2593.6706
-50	2614.1476
-49	2741.2605
-48	2652.9331
-47	2570.5745
-46	2532.6074
-45	2893.788
-44	2874.3806
-43	2871.1155
-42	3082.3234
-41	3236.7985
-40	3544.2543
-39	3515.8908
-38	3970.7936
-37	4054.645
-36	4939.8286
-35	5587.9469
-34	5405.6312
-33	5821.4602
-32	6032.2218
-31	5854.5149
-30	6086.2851
-29	6110.784
-28	5401.7919
-27	4864.3645
-26	4494.6224
-25	4063.8623
-24	3811.4873
-23	3717.0266
-22	4078.6975
-21	3947.5251
-20	3959.1166
-19	3904.5396
-18	4326.883
-17	4243.1726
-16	4309.7623
-15	4323.2224
-14	4747.7542
-13	4700.1163
-12	5379.9293
-11	5941.9425
-10	6356.6989
-9	7342.1058
-8	7442.3891
-7	8712.8563
-6	9234.3025
-5	11313.7609
-4	12519.4022
-3	14559.8725
-2	16373.1156
-1	17837.6649
0	96709.9337
1	17837.6649
2	16373.1156
3	14559.8725
4	12519.4022
5	11313.7609
6	9234.3025
7	8712.8563
8	7442.3891
9	7342.1058
10	6356.6989
11	5941.9425
12	5379.9293
13	4700.1163
14	4747.7542
15	4323.2224
16	4309.7623
17	4243.1726
18	4326.883
19	3904.5396
20	3959.1166
21	3947.5251
22	4078.6975
23	3717.0266
24	3811.4873
25	4063.8623
26	4494.6224
27	4864.3645
28	5401.7919
29	6110.784
30	6086.2851
31	5854.5149
32	6032.2218
33	5821.4602
34	5405.6312
35	5587.9469
36	4939.8286
37	4054.645
38	3970.7936
39	3515.8908
40	3544.2543
41	3236.7985
42	3082.3234
43	2871.1155
44	2874.3806
45	2893.788
46	2532.6074
47	2570.5745
48	2652.9331
49	2741.2605
50	2614.1476
51	2593.6706
52	2657.3021
53	2655.6007
54	2930.8049
55	3179.1735
56	3237.3257
57	3622.5898
58	3967.3534
59	4075.9829
60	4333.3255
61	4577.9141
62	4263.7047
63	4174.2768
64	4169.4534
65	3876.1952
66	4056.4022
67	3786.8205
68	3565.67
69	3477.6106
70	3229.2287
71	3127.7692
72	2824.2886
73	2793.896
74	2543.734
75	2484.8831
76	2499.9494
77	2438.886
78	2404.6001
79	2237.5848
80	2276.5197
81	2165.3895
82	2262.7731
83	2206.0214
84	2256.1863
85	2611.5741
86	2496.4131
87	2748.8399
88	2698.7241
89	2944.3999
90	2935.5212
91	3244.5639
92	3363.5091
93	3420.2606
94	3295.6787
95	3423.2189
96	3172.7721
97	2962.488
98	3070.7255
99	3026.7405
100	2701.4512
101	2757.381
102	2609.9755
103	2572.9557
104	2490.609
105	2400.1746
106	2285.0657
107	2284.4519
108	2178.6193
109	2309.6423
110	2254.3505
111	2332.1989
112	2199.5254
113	2205.3735
114	2146.1014
115	2170.9622
116	2313.546
117	2313.5752
118	2202.4884
119	2479.2882
120	2354.7354
121	2514.8057
122	2629.5823
123	2623.7443
124	2547.5847
125	2640.1291
126	2646.9371
127	2504.1954
128	2448.349
129	2350.781
130	2432.1557
131	2399.2347
132	2275.0278
133	2489.1377
134	2407.7764
135	2310.7813
136	2283.4221
137	2195.5448
138	2229.4725
139	2127.1442
140	2214.5436
141	2182.7004
142	2125.5721
143	2270.8406
144	2172.8644
145	2173.5146
146	2120.4325
147	2223.7481
148	2149.4869
149	2345.5721
150	2364.6661
151	2215.0905
152	2403.2091
153	2309.8166
154	2346.6687
155	2278.674
156	2312.5729
157	2378.419
158	2241.9502
159	2363.8276
160	2293.6177
161	2235.7069
162	2150.8435
163	2129.526
164	2111.9237
165	2191.9665
166	2093.4809
167	2035.5988
168	2019.7148
169	2102.4365
170	1967.1648
171	2089.3133
172	1978.1355
173	2016.9011
174	1953.9531
175	2002.7334
176	2000.3342
177	2099.3309
178	2102.2859
179	2114.9679
180	2006.5624
181	2092.8869
182	1928.9962
183	2149.293
184	2164.5029
185	2090.21
186	2137.2825
187	2066.3174
188	1989.0858
189	2169.8377
190	2100.9038
191	2024.0756
192	2041.0486
193	2070.8769
194	1892.5107
195	1936.4105
196	2019.5452
197	1921.7152
198	1842.3925
199	1864.561
200	901.2821
