Position	Value
-200	39875.6043
-199	80443.5425
-198	80923.2037
-197	80895.4802
-196	80728.8164
-195	81339.39
-194	81355.4976
-193	81513.7488
-192	80821.206
-191	80071.2497
-190	81476.5478
-189	81060.812
-188	80674.9401
-187	80761.1009
-186	81403.6659
-185	80200.0005
-184	79868.7882
-183	81098.682
-182	80666.9358
-181	79857.6204
-180	80786.3725
-179	80545.6788
-178	80866.3853
-177	80967.094
-176	81893.3156
-175	81061.5245
-174	81549.1383
-173	82272.8974
-172	81912.4067
-171	82260.3479
-170	83176.2815
-169	83284.9414
-168	83710.1972
-167	84271.9009
-166	83293.2853
-165	85953.4535
-164	84862.0709
-163	85468.2307
-162	85862.1839
-161	86155.9862
-160	85996.6087
-159	87485.9104
-158	86514.336
-157	86606.0156
-156	87367.1377
-155	86476.0724
-154	86374.0417
-153	86149.1781
-152	84617.7334
-151	84587.4384
-150	84944.9827
-149	84565.2012
-148	84023.6173
-147	84424.4755
-146	83609.95
-145	83865.1989
-144	84971.9503
-143	85371.319
-142	85526.6339
-141	86087.9397
-140	85584.3322
-139	86039.9269
-138	86327.3096
-137	86133.3096
-136	87624.4852
-135	89615.5577
-134	88341.1874
-133	89358.2854
-132	90010.2981
-131	89668.4527
-130	89325.9785
-129	91194.7279
-128	91136.1867
-127	90815.2634
-126	91623.0349
-125	91070.5069
-124	90559.335
-123	90994.726
-122	90447.7228
-121	90172.9984
-120	89823.3864
-119	88318.3668
-118	87895.8698
-117	88832.786
-116	87297.7931
-115	87919.2019
-114	87066.3318
-113	87315.9999
-112	87650.8639
-111	87896.9117
-110	87819.5625
-109	87817.9361
-108	89486.9836
-107	89148.7196
-106	89262.7326
-105	89411.1973
-104	90684.1638
-103	91983.6489
-102	92751.2258
-101	93009.1248
-100	93025.8471
-99	95142.9977
-98	96605.8114
-97	95085.7954
-96	95636.8085
-95	95863.1184
-94	95692.463
-93	96385.7722
-92	96017.2373
-91	95423.6804
-90	94594.3443
-89	92828.1673
-88	92082.9731
-87	92650.82
-86	91014.8908
-85	91208.7496
-84	90329.6387
-83	90993.2887
-82	89935.7158
-81	91381.6169
-80	91071.2664
-79	92151.6989
-78	92432.1359
-77	93057.8053
-76	93457.0528
-75	94659.9429
-74	94318.969
-73	94732.0158
-72	95738.595
-71	98089.9636
-70	98232.1927
-69	100080.1334
-68	100911.4377
-67	102341.063
-66	104948.6866
-65	104857.484
-64	105027.3114
-63	106806.2633
-62	106049.4367
-61	106001.5856
-60	106284.6174
-59	103608.1502
-58	101754.4821
-57	100190.9408
-56	97976.3386
-55	96828.1578
-54	97721.3887
-53	95297.6619
-52	95852.0056
-51	95299.7076
-50	96716.7897
-49	95500.3896
-48	95671.8223
-47	95584.9696
-46	95918.6036
-45	99549.9808
-44	97801.3491
-43	97873.2515
-42	99906.0536
-41	99294.7247
-40	101609.1105
-39	104265.76
-38	105440.662
-37	107794.1977
-36	109860.8532
-35	112989.1398
-34	116157.4774
-33	120644.4201
-32	123690.7909
-31	127441.3163
-30	131143.568
-29	123572.4875
-28	115528.8032
-27	108523.6221
-26	101681.3301
-25	103220.783
-24	105797.7973
-23	106386.2896
-22	107638.7756
-21	111405.6738
-20	109837.0162
-19	112318.0173
-18	116372.8776
-17	117394.6852
-16	121234.4619
-15	124755.5437
-14	128723.3786
-13	135541.2187
-12	146852.8541
-11	154099.1781
-10	160889.9915
-9	170371.2734
-8	174921.5638
-7	190668.0809
-6	203548.6909
-5	231592.6744
-4	243130.0343
-3	262901.2754
-2	287492.4347
-1	289609.4436
0	1963131.6041
1	289609.4436
2	287492.4347
3	262901.2754
4	243130.0343
5	231592.6744
6	203548.6909
7	190668.0809
8	174921.5638
9	170371.2734
10	160889.9915
11	154099.1781
12	146852.8541
13	135541.2187
14	128723.3786
15	124755.5437
16	121234.4619
17	117394.6852
18	116372.8776
19	112318.0173
20	109837.0162
21	111405.6738
22	107638.7756
23	106386.2896
24	105797.7973
25	103220.783
26	101681.3301
27	108523.6221
28	115528.8032
29	123572.4875
30	131143.568
31	127441.3163
32	123690.7909
33	120644.4201
34	116157.4774
35	112989.1398
36	109860.8532
37	107794.1977
38	105440.662
39	104265.76
40	101609.1105
41	99294.7247
42	99906.0536
43	97873.2515
44	97801.3491
45	99549.9808
46	95918.6036
47	95584.9696
48	95671.8223
49	95500.3896
50	96716.7897
51	95299.7076
52	95852.0056
53	95297.6619
54	97721.3887
55	96828.1578
56	97976.3386
57	100190.9408
58	101754.4821
59	103608.1502
60	106284.6174
61	106001.5856
62	106049.4367
63	106806.2633
64	105027.3114
65	104857.484
66	104948.6866
67	102341.063
68	100911.4377
69	100080.1334
70	98232.1927
71	98089.9636
72	95738.595
73	94732.0158
74	94318.969
75	94659.9429
76	93457.0528
77	93057.8053
78	92432.1359
79	92151.6989
80	91071.2664
81	91381.6169
82	89935.7158
83	90993.2887
84	90329.6387
85	91208.7496
86	91014.8908
87	92650.82
88	92082.9731
89	92828.1673
90	94594.3443
91	95423.6804
92	96017.2373
93	96385.7722
94	95692.463
95	95863.1184
96	95636.8085
97	95085.7954
98	96605.8114
99	95142.9977
100	93025.8471
101	93009.1248
102	92751.2258
103	91983.6489
104	90684.1638
105	89411.1973
106	89262.7326
107	89148.7196
108	89486.9836
109	87817.9361
110	87819.5625
111	87896.9117
112	87650.8639
113	87315.9999
114	87066.3318
115	87919.2019
116	87297.7931
117	88832.786
118	87895.8698
119	88318.3668
120	89823.3864
121	90172.9984
122	90447.7228
123	90994.726
124	90559.335
125	91070.5069
126	91623.0349
127	90815.2634
128	91136.1867
129	91194.7279
130	89325.9785
131	89668.4527
132	90010.2981
133	89358.2854
134	88341.1874
135	89615.5577
136	87624.4852
137	86133.3096
138	86327.3096
139	86039.9269
140	85584.3322
141	86087.9397
142	85526.6339
143	85371.319
144	84971.9503
145	83865.1989
146	83609.95
147	84424.4755
148	84023.6173
149	84565.2012
150	84944.9827
151	84587.4384
152	84617.7334
153	86149.1781
154	86374.0417
155	86476.0724
156	87367.1377
157	86606.0156
158	86514.336
159	87485.9104
160	85996.6087
161	86155.9862
162	85862.1839
163	85468.2307
164	84862.0709
165	85953.4535
166	83293.2853
167	84271.9009
168	83710.1972
169	83284.9414
170	83176.2815
171	82260.3479
172	81912.4067
173	82272.8974
174	81549.1383
175	81061.5245
176	81893.3156
177	80967.094
178	80866.3853
179	80545.6788
180	80786.3725
181	79857.6204
182	80666.9358
183	81098.682
184	79868.7882
185	80200.0005
186	81403.6659
187	80761.1009
188	80674.9401
189	81060.812
190	81476.5478
191	80071.2497
192	80821.206
193	81513.7488
194	81355.4976
195	81339.39
196	80728.8164
197	80895.4802
198	80923.2037
199	80443.5425
200	39875.6043
