Position	Value
-200	946.4724
-199	2079.5286
-198	1937.1641
-197	2059.4153
-196	1922.9771
-195	2075.3217
-194	1948.8375
-193	2096.0259
-192	2054.3564
-191	2076.0429
-190	2170.3019
-189	2306.8275
-188	2178.3669
-187	2120.6735
-186	2223.4305
-185	2274.7719
-184	2200.1055
-183	2212.5633
-182	1915.1932
-181	2125.017
-180	2029.2254
-179	2112.8355
-178	2139.9997
-177	2068.2079
-176	2027.399
-175	1997.1985
-174	2111.7104
-173	2090.0136
-172	2103.1928
-171	2072.5667
-170	2141.5028
-169	2039.6827
-168	2073.0419
-167	2111.2106
-166	2159.691
-165	2081.1715
-164	2092.223
-163	2132.8202
-162	2153.9547
-161	2305.4583
-160	2227.4735
-159	2316.1635
-158	2377.4639
-157	2391.6021
-156	2249.9186
-155	2295.0807
-154	2362.9731
-153	2316.9582
-152	2406.8322
-151	2286.2836
-150	2290.6035
-149	2360.0374
-148	2114.8677
-147	2292.9552
-146	2163.355
-145	2194.2677
-144	2166.9027
-143	2234.0053
-142	2126.5564
-141	2182.6533
-140	2243.9968
-139	2415.1745
-138	2256.5827
-137	2227.1758
-136	2325.4835
-135	2419.2419
-134	2431.0229
-133	2594.0532
-132	2365.0683
-131	2401.0773
-130	2458.3844
-129	2522.7006
-128	2471.2606
-127	2525.176
-126	2597.2028
-125	2692.9556
-124	2483.9845
-123	2666.8392
-122	2761.76
-121	2415.4717
-120	2445.7942
-119	2551.7719
-118	2324.6161
-117	2408.3147
-116	2420.2442
-115	2340.0654
-114	2187.1465
-113	2229.6416
-112	2313.526
-111	2552.1372
-110	2516.7558
-109	2503.5722
-108	2400.681
-107	2593.6435
-106	2524.0195
-105	2567.5315
-104	2582.944
-103	2716.1837
-102	2810.217
-101	2718.0079
-100	2827.5389
-99	3071.9534
-98	3116.8917
-97	3021.8202
-96	3191.2633
-95	3287.2625
-94	3318.7462
-93	3367.5976
-92	3306.9425
-91	3205.67
-90	2954.6885
-89	3075.2942
-88	2951.3731
-87	2873.4016
-86	2703.0844
-85	2568.5472
-84	2337.6756
-83	2568.1492
-82	2497.1834
-81	2430.76
-80	2439.0553
-79	2421.266
-78	2698.3272
-77	2599.1159
-76	2554.9017
-75	2401.9386
-74	2803.2283
-73	2917.5922
-72	2898.6114
-71	3265.3129
-70	3277.9948
-69	3391.4787
-68	3562.458
-67	3692.3177
-66	4173.981
-65	3965.3938
-64	4161.476
-63	4036.4309
-62	4181.6081
-61	4563.2442
-60	4239.9028
-59	4126.6989
-58	3960.5032
-57	3529.8044
-56	3320.1238
-55	3169.0252
-54	2843.1662
-53	2768.6231
-52	2820.5668
-51	2825.2077
-50	2905.4704
-49	2751.3611
-48	2878.3246
-47	2840.8662
-46	2908.9171
-45	3153.8705
-44	3155.6716
-43	3158.9984
-42	3213.4899
-41	3366.79
-40	3661.6136
-39	3619.8184
-38	4042.2967
-37	4225.8881
-36	4935.7448
-35	5442.7904
-34	5153.387
-33	5796.2442
-32	5936.8506
-31	5956.9164
-30	6054.027
-29	6113.1973
-28	5329.1734
-27	4897.7791
-26	4439.0857
-25	4053.6041
-24	4103.1017
-23	4054.256
-22	4291.4555
-21	4305.3459
-20	4240.4625
-19	4248.748
-18	4571.8583
-17	4749.8779
-16	4674.323
-15	4679.5309
-14	4880.8531
-13	5132.8753
-12	5660.206
-11	6261.4275
-10	6802.7243
-9	7486.4985
-8	7918.4553
-7	8795.2979
-6	9636.8183
-5	11566.6594
-4	13317.0027
-3	15359.1986
-2	17084.0631
-1	18655.8931
0	106682.2452
1	18655.8931
2	17084.0631
3	15359.1986
4	13317.0027
5	11566.6594
6	9636.8183
7	8795.2979
8	7918.4553
9	7486.4985
10	6802.7243
11	6261.4275
12	5660.206
13	5132.8753
14	4880.8531
15	4679.5309
16	4674.323
17	4749.8779
18	4571.8583
19	4248.748
20	4240.4625
21	4305.3459
22	4291.4555
23	4054.256
24	4103.1017
25	4053.6041
26	4439.0857
27	4897.7791
28	5329.1734
29	6113.1973
30	6054.027
31	5956.9164
32	5936.8506
33	5796.2442
34	5153.387
35	5442.7904
36	4935.7448
37	4225.8881
38	4042.2967
39	3619.8184
40	3661.6136
41	3366.79
42	3213.4899
43	3158.9984
44	3155.6716
45	3153.8705
46	2908.9171
47	2840.8662
48	2878.3246
49	2751.3611
50	2905.4704
51	2825.2077
52	2820.5668
53	2768.6231
54	2843.1662
55	3169.0252
56	3320.1238
57	3529.8044
58	3960.5032
59	4126.6989
60	4239.9028
61	4563.2442
62	4181.6081
63	4036.4309
64	4161.476
65	3965.3938
66	4173.981
67	3692.3177
68	3562.458
69	3391.4787
70	3277.9948
71	3265.3129
72	2898.6114
73	2917.5922
74	2803.2283
75	2401.9386
76	2554.9017
77	2599.1159
78	2698.3272
79	2421.266
80	2439.0553
81	2430.76
82	2497.1834
83	2568.1492
84	2337.6756
85	2568.5472
86	2703.0844
87	2873.4016
88	2951.3731
89	3075.2942
90	2954.6885
91	3205.67
92	3306.9425
93	3367.5976
94	3318.7462
95	3287.2625
96	3191.2633
97	3021.8202
98	3116.8917
99	3071.9534
100	2827.5389
101	2718.0079
102	2810.217
103	2716.1837
104	2582.944
105	2567.5315
106	2524.0195
107	2593.6435
108	2400.681
109	2503.5722
110	2516.7558
111	2552.1372
112	2313.526
113	2229.6416
114	2187.1465
115	2340.0654
116	2420.2442
117	2408.3147
118	2324.6161
119	2551.7719
120	2445.7942
121	2415.4717
122	2761.76
123	2666.8392
124	2483.9845
125	2692.9556
126	2597.2028
127	2525.176
128	2471.2606
129	2522.7006
130	2458.3844
131	2401.0773
132	2365.0683
133	2594.0532
134	2431.0229
135	2419.2419
136	2325.4835
137	2227.1758
138	2256.5827
139	2415.1745
140	2243.9968
141	2182.6533
142	2126.5564
143	2234.0053
144	2166.9027
145	2194.2677
146	2163.355
147	2292.9552
148	2114.8677
149	2360.0374
150	2290.6035
151	2286.2836
152	2406.8322
153	2316.9582
154	2362.9731
155	2295.0807
156	2249.9186
157	2391.6021
158	2377.4639
159	2316.1635
160	2227.4735
161	2305.4583
162	2153.9547
163	2132.8202
164	2092.223
165	2081.1715
166	2159.691
167	2111.2106
168	2073.0419
169	2039.6827
170	2141.5028
171	2072.5667
172	2103.1928
173	2090.0136
174	2111.7104
175	1997.1985
176	2027.399
177	2068.2079
178	2139.9997
179	2112.8355
180	2029.2254
181	2125.017
182	1915.1932
183	2212.5633
184	2200.1055
185	2274.7719
186	2223.4305
187	2120.6735
188	2178.3669
189	2306.8275
190	2170.3019
191	2076.0429
192	2054.3564
193	2096.0259
194	1948.8375
195	2075.3217
196	1922.9771
197	2059.4153
198	1937.1641
199	2079.5286
200	946.4724
