Position	Value
-200	9244.5252
-199	18223.9458
-198	18308.2839
-197	18810.8819
-196	18651.5955
-195	18303.6021
-194	18657.3144
-193	18445.3069
-192	18487.2102
-191	18427.2496
-190	18414.2
-189	18940.0402
-188	18603.4316
-187	18759.3356
-186	18829.7836
-185	18503.6804
-184	18699.7221
-183	18285.7498
-182	18233.8621
-181	18647.8156
-180	18555.9777
-179	18601.8623
-178	18332.6123
-177	17967.8923
-176	18249.843
-175	18216.1668
-174	18433.5702
-173	18044.3277
-172	18386.3711
-171	18222.0346
-170	18597.1373
-169	18384.7601
-168	18849.0531
-167	19047.4798
-166	18847.6104
-165	19636.8928
-164	18857.7128
-163	19173.9655
-162	18956.5256
-161	19047.9109
-160	19233.1601
-159	19581.5727
-158	18559.2564
-157	19630.9329
-156	19799.9689
-155	19589.9657
-154	19780.9304
-153	19738.2226
-152	19733.7339
-151	19301.0692
-150	19589.8997
-149	19572.7645
-148	19231.1195
-147	19384.9039
-146	19004.005
-145	18534.607
-144	19496.972
-143	19369.8361
-142	19243.3913
-141	19561.1802
-140	19898.1329
-139	19532.2127
-138	19891.7968
-137	19691.9028
-136	19587.7113
-135	19844.795
-134	19926.4552
-133	19806.9662
-132	20417.3501
-131	20175.8716
-130	20299.2362
-129	20326.7809
-128	20289.2638
-127	20296.4579
-126	20212.175
-125	20404.5804
-124	20266.1093
-123	20419.9742
-122	21059.0631
-121	20405.0484
-120	19865.3026
-119	20196.1054
-118	20012.5587
-117	19832.2566
-116	19525.1548
-115	19303.0304
-114	19802.8705
-113	19487.0266
-112	19881.2398
-111	20262.4703
-110	19901.5874
-109	19938.6878
-108	20105.8444
-107	20367.3065
-106	20687.3271
-105	20804.4567
-104	21113.8926
-103	20667.5491
-102	21166.4215
-101	21508.334
-100	22289.0732
-99	22127.3476
-98	22598.3643
-97	22859.9555
-96	22852.9672
-95	23186.4848
-94	23362.1965
-93	23344.6348
-92	22994.3127
-91	22989.9861
-90	22982.0236
-89	22620.9286
-88	22227.2176
-87	22159.8779
-86	22148.4613
-85	21617.7934
-84	20708.6387
-83	21286.7112
-82	21074.1511
-81	21572.4386
-80	21408.6147
-79	21039.4023
-78	21976.1868
-77	21218.1236
-76	21838.9802
-75	21832.2121
-74	21867.025
-73	22643.1268
-72	22833.7439
-71	23032.7665
-70	23254.7656
-69	23991.1627
-68	23854.1556
-67	25080.3288
-66	24702.999
-65	24842.4066
-64	25183.197
-63	25244.3486
-62	25354.9268
-61	26211.7205
-60	26063.5968
-59	24698.4067
-58	24622.3584
-57	24318.9543
-56	23698.0156
-55	23813.251
-54	23545.4932
-53	23273.4001
-52	23556.5547
-51	23863.7076
-50	23495.0376
-49	23724.8362
-48	23579.7888
-47	23345.5314
-46	22688.5653
-45	24079.2722
-44	23655.6851
-43	24255.3152
-42	24494.2051
-41	24972.2356
-40	25364.2956
-39	25657.2459
-38	26493.8157
-37	27225.0519
-36	28562.38
-35	29284.7753
-34	29909.6282
-33	31073.0328
-32	30794.138
-31	31880.938
-30	32438.8944
-29	31073.1453
-28	29485.0856
-27	29716.683
-26	28336.6545
-25	28255.7959
-24	28167.3083
-23	28728.609
-22	29466.2971
-21	29645.0366
-20	29527.2816
-19	30711.774
-18	31027.3823
-17	31082.099
-16	31117.4513
-15	32543.9374
-14	33750.7084
-13	35385.4665
-12	39220.5591
-11	41384.8158
-10	44321.5221
-9	48625.3523
-8	51925.9815
-7	57293.881
-6	61879.8064
-5	72014.3918
-4	77986.8845
-3	96083.1397
-2	107310.2009
-1	112823.4518
0	506692.3176
1	112823.4518
2	107310.2009
3	96083.1397
4	77986.8845
5	72014.3918
6	61879.8064
7	57293.881
8	51925.9815
9	48625.3523
10	44321.5221
11	41384.8158
12	39220.5591
13	35385.4665
14	33750.7084
15	32543.9374
16	31117.4513
17	31082.099
18	31027.3823
19	30711.774
20	29527.2816
21	29645.0366
22	29466.2971
23	28728.609
24	28167.3083
25	28255.7959
26	28336.6545
27	29716.683
28	29485.0856
29	31073.1453
30	32438.8944
31	31880.938
32	30794.138
33	31073.0328
34	29909.6282
35	29284.7753
36	28562.38
37	27225.0519
38	26493.8157
39	25657.2459
40	25364.2956
41	24972.2356
42	24494.2051
43	24255.3152
44	23655.6851
45	24079.2722
46	22688.5653
47	23345.5314
48	23579.7888
49	23724.8362
50	23495.0376
51	23863.7076
52	23556.5547
53	23273.4001
54	23545.4932
55	23813.251
56	23698.0156
57	24318.9543
58	24622.3584
59	24698.4067
60	26063.5968
61	26211.7205
62	25354.9268
63	25244.3486
64	25183.197
65	24842.4066
66	24702.999
67	25080.3288
68	23854.1556
69	23991.1627
70	23254.7656
71	23032.7665
72	22833.7439
73	22643.1268
74	21867.025
75	21832.2121
76	21838.9802
77	21218.1236
78	21976.1868
79	21039.4023
80	21408.6147
81	21572.4386
82	21074.1511
83	21286.7112
84	20708.6387
85	21617.7934
86	22148.4613
87	22159.8779
88	22227.2176
89	22620.9286
90	22982.0236
91	22989.9861
92	22994.3127
93	23344.6348
94	23362.1965
95	23186.4848
96	22852.9672
97	22859.9555
98	22598.3643
99	22127.3476
100	22289.0732
101	21508.334
102	21166.4215
103	20667.5491
104	21113.8926
105	20804.4567
106	20687.3271
107	20367.3065
108	20105.8444
109	19938.6878
110	19901.5874
111	20262.4703
112	19881.2398
113	19487.0266
114	19802.8705
115	19303.0304
116	19525.1548
117	19832.2566
118	20012.5587
119	20196.1054
120	19865.3026
121	20405.0484
122	21059.0631
123	20419.9742
124	20266.1093
125	20404.5804
126	20212.175
127	20296.4579
128	20289.2638
129	20326.7809
130	20299.2362
131	20175.8716
132	20417.3501
133	19806.9662
134	19926.4552
135	19844.795
136	19587.7113
137	19691.9028
138	19891.7968
139	19532.2127
140	19898.1329
141	19561.1802
142	19243.3913
143	19369.8361
144	19496.972
145	18534.607
146	19004.005
147	19384.9039
148	19231.1195
149	19572.7645
150	19589.8997
151	19301.0692
152	19733.7339
153	19738.2226
154	19780.9304
155	19589.9657
156	19799.9689
157	19630.9329
158	18559.2564
159	19581.5727
160	19233.1601
161	19047.9109
162	18956.5256
163	19173.9655
164	18857.7128
165	19636.8928
166	18847.6104
167	19047.4798
168	18849.0531
169	18384.7601
170	18597.1373
171	18222.0346
172	18386.3711
173	18044.3277
174	18433.5702
175	18216.1668
176	18249.843
177	17967.8923
178	18332.6123
179	18601.8623
180	18555.9777
181	18647.8156
182	18233.8621
183	18285.7498
184	18699.7221
185	18503.6804
186	18829.7836
187	18759.3356
188	18603.4316
189	18940.0402
190	18414.2
191	18427.2496
192	18487.2102
193	18445.3069
194	18657.3144
195	18303.6021
196	18651.5955
197	18810.8819
198	18308.2839
199	18223.9458
200	9244.5252
