Position	Value
-200	1576.7725
-199	3057.9937
-198	3083.6037
-197	3099.906
-196	3180.7011
-195	3354.2896
-194	3142.3345
-193	3427.842
-192	3459.0087
-191	3428.4271
-190	3342.7209
-189	3481.5511
-188	3282.1001
-187	3319.4498
-186	3573.7307
-185	3555.0195
-184	3525.6488
-183	3329.5304
-182	3224.816
-181	3267.0939
-180	3349.7911
-179	3434.2125
-178	3550.7932
-177	3291.2333
-176	3307.5633
-175	3244.2091
-174	3372.9784
-173	3261.3976
-172	3417.8123
-171	3361.9034
-170	3473.1065
-169	3460.308
-168	3425.2998
-167	3402.7739
-166	3458.0892
-165	3447.8067
-164	3544.0309
-163	3508.2687
-162	3455.883
-161	3670.8553
-160	3667.3704
-159	3791.3797
-158	3677.253
-157	3862.7157
-156	3856.1341
-155	3772.2614
-154	3803.8801
-153	3823.6356
-152	3885.6047
-151	3743.8589
-150	3684.143
-149	3742.6348
-148	3421.5894
-147	3679.9443
-146	3452.1873
-145	3488.5685
-144	3556.9543
-143	3830.2717
-142	3583.1836
-141	3632.5141
-140	3653.164
-139	3792.0914
-138	3652.0631
-137	3620.8704
-136	3801.5473
-135	3926.4184
-134	3991.264
-133	4043.2695
-132	3845.1292
-131	3969.5268
-130	4022.5076
-129	4111.5192
-128	4086.1573
-127	4259.0659
-126	4573.0244
-125	4349.3601
-124	4236.6959
-123	4342.6796
-122	4336.8493
-121	4112.5679
-120	3982.7958
-119	4082.7228
-118	3806.0577
-117	4022.468
-116	3781.8449
-115	3652.7051
-114	3535.7016
-113	3567.2767
-112	3768.2538
-111	3937.7664
-110	3838.6354
-109	3926.0624
-108	3858.8496
-107	3897.9442
-106	3881.0002
-105	4120.4483
-104	4004.326
-103	4126.0634
-102	4266.0652
-101	4479.5395
-100	4586.4459
-99	4819.8302
-98	4847.5085
-97	4793.9944
-96	5005.7136
-95	5577.4382
-94	5200.9942
-93	5356.9971
-92	5269.4721
-91	5230.9323
-90	4938.689
-89	4755.6537
-88	4487.306
-87	4506.093
-86	4255.5506
-85	4178.7735
-84	3759.4158
-83	3938.8803
-82	3894.0919
-81	3696.3944
-80	3868.3613
-79	3846.764
-78	4033.7429
-77	3960.209
-76	4022.3907
-75	4117.8067
-74	4257.0318
-73	4481.6635
-72	4587.2584
-71	5042.6314
-70	5134.0872
-69	5569.7423
-68	5608.489
-67	6150.0539
-66	6566.3885
-65	6525.1219
-64	6589.2937
-63	6413.7862
-62	6661.7663
-61	7235.1391
-60	6800.2221
-59	6374.3434
-58	6293.2048
-57	5584.6807
-56	5380.2572
-55	5230.8665
-54	4690.9394
-53	4482.6858
-52	4595.995
-51	4365.1104
-50	4332.8537
-49	4400.698
-48	4442.6619
-47	4423.2682
-46	4240.7496
-45	4749.9429
-44	4660.6223
-43	4735.5605
-42	5008.48
-41	5459.6152
-40	5788.6418
-39	5660.1277
-38	6399.5636
-37	6511.0064
-36	7218.8377
-35	8364.3368
-34	8420.0284
-33	9056.8355
-32	9411.6922
-31	9431.4214
-30	9550.2655
-29	9472.5022
-28	8356.9138
-27	7702.436
-26	7247.0135
-25	6561.5841
-24	6284.6338
-23	6187.5712
-22	6417.9396
-21	6677.1583
-20	6644.4842
-19	6687.4416
-18	7071.3081
-17	7067.0681
-16	7179.9075
-15	7150.0691
-14	7485.531
-13	7864.2334
-12	8638.6096
-11	9332.4007
-10	10007.0016
-9	11392.8085
-8	11516.5985
-7	13564.7867
-6	14602.9855
-5	17333.4797
-4	19024.1749
-3	22597.1905
-2	24563.5306
-1	27261.976
0	135780.9014
1	27261.976
2	24563.5306
3	22597.1905
4	19024.1749
5	17333.4797
6	14602.9855
7	13564.7867
8	11516.5985
9	11392.8085
10	10007.0016
11	9332.4007
12	8638.6096
13	7864.2334
14	7485.531
15	7150.0691
16	7179.9075
17	7067.0681
18	7071.3081
19	6687.4416
20	6644.4842
21	6677.1583
22	6417.9396
23	6187.5712
24	6284.6338
25	6561.5841
26	7247.0135
27	7702.436
28	8356.9138
29	9472.5022
30	9550.2655
31	9431.4214
32	9411.6922
33	9056.8355
34	8420.0284
35	8364.3368
36	7218.8377
37	6511.0064
38	6399.5636
39	5660.1277
40	5788.6418
41	5459.6152
42	5008.48
43	4735.5605
44	4660.6223
45	4749.9429
46	4240.7496
47	4423.2682
48	4442.6619
49	4400.698
50	4332.8537
51	4365.1104
52	4595.995
53	4482.6858
54	4690.9394
55	5230.8665
56	5380.2572
57	5584.6807
58	6293.2048
59	6374.3434
60	6800.2221
61	7235.1391
62	6661.7663
63	6413.7862
64	6589.2937
65	6525.1219
66	6566.3885
67	6150.0539
68	5608.489
69	5569.7423
70	5134.0872
71	5042.6314
72	4587.2584
73	4481.6635
74	4257.0318
75	4117.8067
76	4022.3907
77	3960.209
78	4033.7429
79	3846.764
80	3868.3613
81	3696.3944
82	3894.0919
83	3938.8803
84	3759.4158
85	4178.7735
86	4255.5506
87	4506.093
88	4487.306
89	4755.6537
90	4938.689
91	5230.9323
92	5269.4721
93	5356.9971
94	5200.9942
95	5577.4382
96	5005.7136
97	4793.9944
98	4847.5085
99	4819.8302
100	4586.4459
101	4479.5395
102	4266.0652
103	4126.0634
104	4004.326
105	4120.4483
106	3881.0002
107	3897.9442
108	3858.8496
109	3926.0624
110	3838.6354
111	3937.7664
112	3768.2538
113	3567.2767
114	3535.7016
115	3652.7051
116	3781.8449
117	4022.468
118	3806.0577
119	4082.7228
120	3982.7958
121	4112.5679
122	4336.8493
123	4342.6796
124	4236.6959
125	4349.3601
126	4573.0244
127	4259.0659
128	4086.1573
129	4111.5192
130	4022.5076
131	3969.5268
132	3845.1292
133	4043.2695
134	3991.264
135	3926.4184
136	3801.5473
137	3620.8704
138	3652.0631
139	3792.0914
140	3653.164
141	3632.5141
142	3583.1836
143	3830.2717
144	3556.9543
145	3488.5685
146	3452.1873
147	3679.9443
148	3421.5894
149	3742.6348
150	3684.143
151	3743.8589
152	3885.6047
153	3823.6356
154	3803.8801
155	3772.2614
156	3856.1341
157	3862.7157
158	3677.253
159	3791.3797
160	3667.3704
161	3670.8553
162	3455.883
163	3508.2687
164	3544.0309
165	3447.8067
166	3458.0892
167	3402.7739
168	3425.2998
169	3460.308
170	3473.1065
171	3361.9034
172	3417.8123
173	3261.3976
174	3372.9784
175	3244.2091
176	3307.5633
177	3291.2333
178	3550.7932
179	3434.2125
180	3349.7911
181	3267.0939
182	3224.816
183	3329.5304
184	3525.6488
185	3555.0195
186	3573.7307
187	3319.4498
188	3282.1001
189	3481.5511
190	3342.7209
191	3428.4271
192	3459.0087
193	3427.842
194	3142.3345
195	3354.2896
196	3180.7011
197	3099.906
198	3083.6037
199	3057.9937
200	1576.7725
