Position	Value
-200	111177.0367
-199	222600.3087
-198	222580.7243
-197	222087.8382
-196	221618.9432
-195	222256.918
-194	222595.1984
-193	221781.798
-192	223000.7848
-191	222471.685
-190	222157.8488
-189	221515.1389
-188	222171.8216
-187	223010.0816
-186	223566.651
-185	222534.212
-184	222039.564
-183	222317.4828
-182	221910.9778
-181	221960.1993
-180	222607.9437
-179	221743.1132
-178	222266.4154
-177	223651.2076
-176	222239.6304
-175	223051.0828
-174	222697.799
-173	223263.4184
-172	224231.7855
-171	223460.9495
-170	224545.9267
-169	223656.5894
-168	224192.4925
-167	224553.9847
-166	224655.6453
-165	224738.7086
-164	224991.1319
-163	225450.2903
-162	225259.1123
-161	225213.6859
-160	224884.5796
-159	223646.1555
-158	225110.0878
-157	223521.7657
-156	225153.6031
-155	224404.1082
-154	224619.6332
-153	225539.5554
-152	225657.02
-151	224737.9639
-150	224434.1224
-149	224335.6846
-148	225257.0673
-147	225282.9815
-146	224962.0778
-145	224651.4439
-144	226376.9805
-143	224600.895
-142	225223.7651
-141	225552.7737
-140	224678.8534
-139	225435.262
-138	225799.4519
-137	225532.3273
-136	224923.4094
-135	225134.3529
-134	224519.2461
-133	224341.3729
-132	226422.9544
-131	224499.3106
-130	225359.8224
-129	226218.6338
-128	224416.4768
-127	225067.9819
-126	226923.5474
-125	224954.6391
-124	225809.4793
-123	225643.9068
-122	225239.2149
-121	225421.7768
-120	225885.3059
-119	226781.0698
-118	225208.7295
-117	228345.5118
-116	226785.2497
-115	227634.4284
-114	229365.6701
-113	228926.7751
-112	228722.5391
-111	228876.8637
-110	228325.7253
-109	227223.8006
-108	227699.256
-107	227762.3046
-106	227171.3571
-105	227180.8405
-104	225859.9586
-103	226157.4263
-102	225429.8923
-101	226243.7143
-100	225451.2855
-99	227078.9824
-98	226071.7367
-97	226868.0341
-96	227918.4598
-95	227563.5139
-94	228001.2498
-93	228267.9423
-92	228920.5496
-91	227994.5708
-90	229395.9409
-89	231561.4524
-88	231966.2042
-87	232410.5222
-86	233817.4779
-85	233959.6018
-84	235520.9997
-83	234009.6205
-82	233840.3042
-81	234385.9649
-80	233160.5868
-79	231833.9077
-78	232005.5538
-77	228582.2611
-76	227610.1367
-75	227361.7828
-74	225179.7117
-73	228327.4289
-72	226254.9539
-71	227725.8741
-70	227395.6012
-69	227326.8114
-68	226642.2221
-67	227419.3616
-66	229245.0561
-65	229648.9622
-64	231148.8554
-63	232855.7281
-62	233323.0427
-61	235152.2884
-60	236731.9475
-59	237577.5548
-58	239377.0591
-57	241021.4982
-56	242852.1851
-55	242977.7094
-54	242068.9221
-53	241092.4658
-52	238337.1088
-51	234686.8345
-50	229599.6306
-49	227571.9385
-48	227007.4051
-47	225874.8161
-46	225349.7706
-45	226745.822
-44	224342.6689
-43	224585.7818
-42	226022.6302
-41	225470.4383
-40	227276.9881
-39	226661.1171
-38	227778.3629
-37	231623.3933
-36	234977.9327
-35	236277.9152
-34	237884.7514
-33	244083.7517
-32	248922.6724
-31	251691.1718
-30	260322.1015
-29	268239.0116
-28	274325.8568
-27	278173.4164
-26	273358.2741
-25	268293.1315
-24	258430.9534
-23	247913.3598
-22	245010.105
-21	249323.9893
-20	253946.0517
-19	257273.6329
-18	263810.1641
-17	269830.339
-16	275235.6223
-15	281343.7225
-14	282684.8294
-13	290169.6741
-12	299845.4817
-11	308882.0167
-10	323951.7752
-9	340392.8562
-8	362017.3933
-7	377577.535
-6	406373.8179
-5	445448.0359
-4	454520.5708
-3	495841.2124
-2	619072.4004
-1	614284.1494
0	2127389.3794
1	614284.1494
2	619072.4004
3	495841.2124
4	454520.5708
5	445448.0359
6	406373.8179
7	377577.535
8	362017.3933
9	340392.8562
10	323951.7752
11	308882.0167
12	299845.4817
13	290169.6741
14	282684.8294
15	281343.7225
16	275235.6223
17	269830.339
18	263810.1641
19	257273.6329
20	253946.0517
21	249323.9893
22	245010.105
23	247913.3598
24	258430.9534
25	268293.1315
26	273358.2741
27	278173.4164
28	274325.8568
29	268239.0116
30	260322.1015
31	251691.1718
32	248922.6724
33	244083.7517
34	237884.7514
35	236277.9152
36	234977.9327
37	231623.3933
38	227778.3629
39	226661.1171
40	227276.9881
41	225470.4383
42	226022.6302
43	224585.7818
44	224342.6689
45	226745.822
46	225349.7706
47	225874.8161
48	227007.4051
49	227571.9385
50	229599.6306
51	234686.8345
52	238337.1088
53	241092.4658
54	242068.9221
55	242977.7094
56	242852.1851
57	241021.4982
58	239377.0591
59	237577.5548
60	236731.9475
61	235152.2884
62	233323.0427
63	232855.7281
64	231148.8554
65	229648.9622
66	229245.0561
67	227419.3616
68	226642.2221
69	227326.8114
70	227395.6012
71	227725.8741
72	226254.9539
73	228327.4289
74	225179.7117
75	227361.7828
76	227610.1367
77	228582.2611
78	232005.5538
79	231833.9077
80	233160.5868
81	234385.9649
82	233840.3042
83	234009.6205
84	235520.9997
85	233959.6018
86	233817.4779
87	232410.5222
88	231966.2042
89	231561.4524
90	229395.9409
91	227994.5708
92	228920.5496
93	228267.9423
94	228001.2498
95	227563.5139
96	227918.4598
97	226868.0341
98	226071.7367
99	227078.9824
100	225451.2855
101	226243.7143
102	225429.8923
103	226157.4263
104	225859.9586
105	227180.8405
106	227171.3571
107	227762.3046
108	227699.256
109	227223.8006
110	228325.7253
111	228876.8637
112	228722.5391
113	228926.7751
114	229365.6701
115	227634.4284
116	226785.2497
117	228345.5118
118	225208.7295
119	226781.0698
120	225885.3059
121	225421.7768
122	225239.2149
123	225643.9068
124	225809.4793
125	224954.6391
126	226923.5474
127	225067.9819
128	224416.4768
129	226218.6338
130	225359.8224
131	224499.3106
132	226422.9544
133	224341.3729
134	224519.2461
135	225134.3529
136	224923.4094
137	225532.3273
138	225799.4519
139	225435.262
140	224678.8534
141	225552.7737
142	225223.7651
143	224600.895
144	226376.9805
145	224651.4439
146	224962.0778
147	225282.9815
148	225257.0673
149	224335.6846
150	224434.1224
151	224737.9639
152	225657.02
153	225539.5554
154	224619.6332
155	224404.1082
156	225153.6031
157	223521.7657
158	225110.0878
159	223646.1555
160	224884.5796
161	225213.6859
162	225259.1123
163	225450.2903
164	224991.1319
165	224738.7086
166	224655.6453
167	224553.9847
168	224192.4925
169	223656.5894
170	224545.9267
171	223460.9495
172	224231.7855
173	223263.4184
174	222697.799
175	223051.0828
176	222239.6304
177	223651.2076
178	222266.4154
179	221743.1132
180	222607.9437
181	221960.1993
182	221910.9778
183	222317.4828
184	222039.564
185	222534.212
186	223566.651
187	223010.0816
188	222171.8216
189	221515.1389
190	222157.8488
191	222471.685
192	223000.7848
193	221781.798
194	222595.1984
195	222256.918
196	221618.9432
197	222087.8382
198	222580.7243
199	222600.3087
200	111177.0367
