Position	Value
-200	180.2669
-199	433.8182
-198	466.7446
-197	453.8944
-196	402.1474
-195	336.6065
-194	329.9599
-193	361.1043
-192	373.575
-191	348.6036
-190	320.5746
-189	364.6282
-188	413.3325
-187	447.0884
-186	459.0512
-185	388.1201
-184	318.5297
-183	350.1436
-182	382.6155
-181	400.4213
-180	386.7509
-179	333.7896
-178	368.313
-177	432.747
-176	511.0356
-175	457.183
-174	412.7608
-173	357.7073
-172	355.6489
-171	350.5084
-170	381.3087
-169	340.363
-168	331.1542
-167	375.4085
-166	441.8829
-165	493.5122
-164	460.3868
-163	385.1766
-162	366.4633
-161	346.8817
-160	369.8936
-159	336.049
-158	333.9526
-157	347.0605
-156	361.2216
-155	412.4519
-154	446.6809
-153	464.9912
-152	379.2448
-151	341.3096
-150	309.5833
-149	356.3397
-148	337.3804
-147	331.5695
-146	334.9063
-145	363.6165
-144	419.3132
-143	477.1328
-142	476.9884
-141	395.2357
-140	316.3845
-139	339.4201
-138	326.4101
-137	321.7876
-136	338.0185
-135	365.4044
-134	377.9106
-133	486.076
-132	545.7506
-131	504.9943
-130	475.2575
-129	379.688
-128	343.3267
-127	362.8568
-126	383.0538
-125	373.2172
-124	382.0952
-123	434.9696
-122	500.6435
-121	564.0231
-120	533.1535
-119	420.5972
-118	386.2321
-117	383.3136
-116	386.8084
-115	359.6531
-114	367.947
-113	363.8704
-112	408.4781
-111	478.6896
-110	547.3842
-109	511.7939
-108	450.1715
-107	352.9541
-106	378.325
-105	427.0135
-104	376.6157
-103	373.3331
-102	397.9191
-101	443.1685
-100	493.3876
-99	568.9797
-98	548.6414
-97	470.5058
-96	408.2598
-95	369.3608
-94	359.4222
-93	380.5236
-92	381.5203
-91	386.1642
-90	470.9952
-89	541.5382
-88	654.5551
-87	576.2485
-86	471.8422
-85	407.1855
-84	396.1468
-83	371.9464
-82	389.4183
-81	363.0842
-80	420.0975
-79	441.501
-78	579.5341
-77	627.8323
-76	598.1486
-75	481.9507
-74	394.4602
-73	401.1235
-72	382.4176
-71	409.4489
-70	382.8936
-69	437.3123
-68	459.0109
-67	569.4918
-66	645.827
-65	589.8803
-64	480.5626
-63	432.9378
-62	367.3148
-61	389.1989
-60	396.0029
-59	383.7987
-58	408.6866
-57	489.0672
-56	549.661
-55	671.0406
-54	603.6388
-53	488.6849
-52	410.5513
-51	405.8526
-50	394.6358
-49	395.0183
-48	403.7269
-47	411.6488
-46	457.4944
-45	620.856
-44	725.809
-43	652.3118
-42	537.8071
-41	431.9257
-40	381.8241
-39	411.1228
-38	402.3166
-37	430.2126
-36	486.4913
-35	521.0485
-34	656.5791
-33	737.1406
-32	657.0033
-31	523.5995
-30	416.7101
-29	437.7992
-28	446.6581
-27	464.2599
-26	473.5866
-25	486.8137
-24	562.5329
-23	641.0044
-22	748.1508
-21	627.254
-20	499.106
-19	384.1182
-18	385.8412
-17	357.3829
-16	417.8601
-15	432.4103
-14	496.993
-13	681.3691
-12	908.102
-11	1115.9805
-10	907.36
-9	722.3564
-8	607.0023
-7	607.3054
-6	626.046
-5	722.9938
-4	756.2553
-3	972.5958
-2	1361.6963
-1	1951.0877
0	18724.819
1	1951.0877
2	1361.6963
3	972.5958
4	756.2553
5	722.9938
6	626.046
7	607.3054
8	607.0023
9	722.3564
10	907.36
11	1115.9805
12	908.102
13	681.3691
14	496.993
15	432.4103
16	417.8601
17	357.3829
18	385.8412
19	384.1182
20	499.106
21	627.254
22	748.1508
23	641.0044
24	562.5329
25	486.8137
26	473.5866
27	464.2599
28	446.6581
29	437.7992
30	416.7101
31	523.5995
32	657.0033
33	737.1406
34	656.5791
35	521.0485
36	486.4913
37	430.2126
38	402.3166
39	411.1228
40	381.8241
41	431.9257
42	537.8071
43	652.3118
44	725.809
45	620.856
46	457.4944
47	411.6488
48	403.7269
49	395.0183
50	394.6358
51	405.8526
52	410.5513
53	488.6849
54	603.6388
55	671.0406
56	549.661
57	489.0672
58	408.6866
59	383.7987
60	396.0029
61	389.1989
62	367.3148
63	432.9378
64	480.5626
65	589.8803
66	645.827
67	569.4918
68	459.0109
69	437.3123
70	382.8936
71	409.4489
72	382.4176
73	401.1235
74	394.4602
75	481.9507
76	598.1486
77	627.8323
78	579.5341
79	441.501
80	420.0975
81	363.0842
82	389.4183
83	371.9464
84	396.1468
85	407.1855
86	471.8422
87	576.2485
88	654.5551
89	541.5382
90	470.9952
91	386.1642
92	381.5203
93	380.5236
94	359.4222
95	369.3608
96	408.2598
97	470.5058
98	548.6414
99	568.9797
100	493.3876
101	443.1685
102	397.9191
103	373.3331
104	376.6157
105	427.0135
106	378.325
107	352.9541
108	450.1715
109	511.7939
110	547.3842
111	478.6896
112	408.4781
113	363.8704
114	367.947
115	359.6531
116	386.8084
117	383.3136
118	386.2321
119	420.5972
120	533.1535
121	564.0231
122	500.6435
123	434.9696
124	382.0952
125	373.2172
126	383.0538
127	362.8568
128	343.3267
129	379.688
130	475.2575
131	504.9943
132	545.7506
133	486.076
134	377.9106
135	365.4044
136	338.0185
137	321.7876
138	326.4101
139	339.4201
140	316.3845
141	395.2357
142	476.9884
143	477.1328
144	419.3132
145	363.6165
146	334.9063
147	331.5695
148	337.3804
149	356.3397
150	309.5833
151	341.3096
152	379.2448
153	464.9912
154	446.6809
155	412.4519
156	361.2216
157	347.0605
158	333.9526
159	336.049
160	369.8936
161	346.8817
162	366.4633
163	385.1766
164	460.3868
165	493.5122
166	441.8829
167	375.4085
168	331.1542
169	340.363
170	381.3087
171	350.5084
172	355.6489
173	357.7073
174	412.7608
175	457.183
176	511.0356
177	432.747
178	368.313
179	333.7896
180	386.7509
181	400.4213
182	382.6155
183	350.1436
184	318.5297
185	388.1201
186	459.0512
187	447.0884
188	413.3325
189	364.6282
190	320.5746
191	348.6036
192	373.575
193	361.1043
194	329.9599
195	336.6065
196	402.1474
197	453.8944
198	466.7446
199	433.8182
200	180.2669
