Position	Value
-200	12.3477
-199	20.9796
-198	34.442
-197	27.3669
-196	29.3191
-195	30.7335
-194	28.0995
-193	31.2396
-192	22.5189
-191	36.9123
-190	29.174
-189	24.7112
-188	26.2166
-187	23.7306
-186	26.7497
-185	25.0462
-184	29.1124
-183	24.2419
-182	24.2838
-181	29.659
-180	31.5281
-179	25.7219
-178	28.5405
-177	27.9237
-176	32.8782
-175	40.9694
-174	39.7132
-173	37.3949
-172	34.5822
-171	35.6117
-170	30.2922
-169	28.0462
-168	29.2213
-167	29.8545
-166	37.6216
-165	33.9747
-164	38.2685
-163	37.3436
-162	43.0567
-161	33.2431
-160	29.3667
-159	26.6904
-158	28.2509
-157	26.9267
-156	33.1246
-155	29.5414
-154	36.0684
-153	25.6547
-152	26.6946
-151	25.7204
-150	29.3255
-149	27.4799
-148	29.9038
-147	33.7173
-146	31.0255
-145	31.184
-144	35.0385
-143	37.5521
-142	38.715
-141	41.4868
-140	35.1598
-139	28.5548
-138	29.4202
-137	25.8974
-136	27.0396
-135	27.1465
-134	25.0266
-133	29.0784
-132	29.7351
-131	23.8952
-130	23.8127
-129	28.2723
-128	21.4329
-127	22.4375
-126	28.2225
-125	27.676
-124	29.9974
-123	24.467
-122	30.1833
-121	34.1619
-120	35.7091
-119	29.1885
-118	38.6077
-117	28.6955
-116	31.8263
-115	25.9652
-114	22.6784
-113	24.271
-112	24.1806
-111	28.3658
-110	25.192
-109	19.0949
-108	26.7064
-107	19.5106
-106	31.12
-105	25.1716
-104	36.0133
-103	26.4669
-102	23.9506
-101	31.3086
-100	26.3555
-99	30.9638
-98	31.0729
-97	25.637
-96	32.025
-95	23.2848
-94	27.5544
-93	21.471
-92	29.1032
-91	29.1926
-90	26.887
-89	31.9932
-88	26.9211
-87	22.6444
-86	27.7716
-85	24.344
-84	29.3354
-83	21.5082
-82	18.7301
-81	26.4272
-80	35.3314
-79	34.8013
-78	23.8015
-77	25.4337
-76	33.6335
-75	30.1314
-74	26.7896
-73	36.905
-72	32.0129
-71	32.4768
-70	33.7429
-69	37.7391
-68	35.4717
-67	37.4673
-66	43.9523
-65	35.4141
-64	41.8932
-63	41.2816
-62	46.2109
-61	35.0402
-60	40.383
-59	41.3459
-58	43.1709
-57	38.9462
-56	35.7203
-55	32.5631
-54	36.0903
-53	39.2309
-52	40.3387
-51	25.9947
-50	24.1389
-49	31.8793
-48	30.0684
-47	29.0663
-46	37.9141
-45	41.0321
-44	42.2638
-43	44.0522
-42	44.2297
-41	39.0523
-40	34.5377
-39	36.2411
-38	34.0084
-37	41.4236
-36	37.0976
-35	46.8381
-34	45.3441
-33	44.8945
-32	46.1508
-31	46.1143
-30	39.3149
-29	35.2424
-28	40.7835
-27	50.0389
-26	49.4655
-25	36.8196
-24	40.5978
-23	47.5613
-22	51.2368
-21	55.8712
-20	64.9722
-19	46.6712
-18	44.838
-17	57.5805
-16	50.9842
-15	47.992
-14	45.9537
-13	69.471
-12	79.0585
-11	93.6728
-10	95.6525
-9	88.7733
-8	85.018
-7	86.0876
-6	113.7379
-5	133.3439
-4	188.9176
-3	281.2931
-2	407.9253
-1	582.4259
0	10646.2156
1	582.4259
2	407.9253
3	281.2931
4	188.9176
5	133.3439
6	113.7379
7	86.0876
8	85.018
9	88.7733
10	95.6525
11	93.6728
12	79.0585
13	69.471
14	45.9537
15	47.992
16	50.9842
17	57.5805
18	44.838
19	46.6712
20	64.9722
21	55.8712
22	51.2368
23	47.5613
24	40.5978
25	36.8196
26	49.4655
27	50.0389
28	40.7835
29	35.2424
30	39.3149
31	46.1143
32	46.1508
33	44.8945
34	45.3441
35	46.8381
36	37.0976
37	41.4236
38	34.0084
39	36.2411
40	34.5377
41	39.0523
42	44.2297
43	44.0522
44	42.2638
45	41.0321
46	37.9141
47	29.0663
48	30.0684
49	31.8793
50	24.1389
51	25.9947
52	40.3387
53	39.2309
54	36.0903
55	32.5631
56	35.7203
57	38.9462
58	43.1709
59	41.3459
60	40.383
61	35.0402
62	46.2109
63	41.2816
64	41.8932
65	35.4141
66	43.9523
67	37.4673
68	35.4717
69	37.7391
70	33.7429
71	32.4768
72	32.0129
73	36.905
74	26.7896
75	30.1314
76	33.6335
77	25.4337
78	23.8015
79	34.8013
80	35.3314
81	26.4272
82	18.7301
83	21.5082
84	29.3354
85	24.344
86	27.7716
87	22.6444
88	26.9211
89	31.9932
90	26.887
91	29.1926
92	29.1032
93	21.471
94	27.5544
95	23.2848
96	32.025
97	25.637
98	31.0729
99	30.9638
100	26.3555
101	31.3086
102	23.9506
103	26.4669
104	36.0133
105	25.1716
106	31.12
107	19.5106
108	26.7064
109	19.0949
110	25.192
111	28.3658
112	24.1806
113	24.271
114	22.6784
115	25.9652
116	31.8263
117	28.6955
118	38.6077
119	29.1885
120	35.7091
121	34.1619
122	30.1833
123	24.467
124	29.9974
125	27.676
126	28.2225
127	22.4375
128	21.4329
129	28.2723
130	23.8127
131	23.8952
132	29.7351
133	29.0784
134	25.0266
135	27.1465
136	27.0396
137	25.8974
138	29.4202
139	28.5548
140	35.1598
141	41.4868
142	38.715
143	37.5521
144	35.0385
145	31.184
146	31.0255
147	33.7173
148	29.9038
149	27.4799
150	29.3255
151	25.7204
152	26.6946
153	25.6547
154	36.0684
155	29.5414
156	33.1246
157	26.9267
158	28.2509
159	26.6904
160	29.3667
161	33.2431
162	43.0567
163	37.3436
164	38.2685
165	33.9747
166	37.6216
167	29.8545
168	29.2213
169	28.0462
170	30.2922
171	35.6117
172	34.5822
173	37.3949
174	39.7132
175	40.9694
176	32.8782
177	27.9237
178	28.5405
179	25.7219
180	31.5281
181	29.659
182	24.2838
183	24.2419
184	29.1124
185	25.0462
186	26.7497
187	23.7306
188	26.2166
189	24.7112
190	29.174
191	36.9123
192	22.5189
193	31.2396
194	28.0995
195	30.7335
196	29.3191
197	27.3669
198	34.442
199	20.9796
200	12.3477
