Position	Value
-200	90516.4693
-199	181775.7495
-198	180006.164
-197	180434.218
-196	180121.4566
-195	180373.1086
-194	181050.8588
-193	180048.1404
-192	181371.8329
-191	180932.404
-190	180661.3484
-189	180613.4211
-188	181054.7858
-187	180894.5229
-186	181423.649
-185	182030.4987
-184	181043.682
-183	181563.5998
-182	181655.8013
-181	181841.3209
-180	181644.0324
-179	181516.6851
-178	181680.2749
-177	182737.2194
-176	182714.555
-175	183622.6902
-174	184038.4538
-173	183029.5197
-172	182975.3148
-171	183708.0445
-170	183106.2195
-169	183017.576
-168	183431.968
-167	184402.6589
-166	183866.3234
-165	183306.0212
-164	183869.0405
-163	183513.2612
-162	183149.48
-161	183033.9203
-160	181608.4212
-159	182477.0327
-158	184108.8867
-157	183080.8303
-156	184191.2033
-155	183800.6425
-154	182702.8233
-153	184432.2716
-152	183263.4112
-151	183415.6252
-150	182306.8206
-149	183845.1544
-148	183006.8968
-147	182961.1575
-146	183476.5157
-145	183550.2516
-144	184422.8543
-143	183602.1365
-142	182676.228
-141	184211.8813
-140	182710.0559
-139	184473.5887
-138	184684.5219
-137	183616.0591
-136	184383.5596
-135	183984.0204
-134	184081.9769
-133	183116.3982
-132	184664.4159
-131	185004.2961
-130	184357.0461
-129	184132.2098
-128	183976.405
-127	184392.8903
-126	183713.5036
-125	183803.2989
-124	184221.1732
-123	183565.5979
-122	183767.887
-121	182999.7593
-120	184749.4816
-119	185306.4987
-118	184663.4053
-117	186956.1937
-116	185735.1648
-115	186069.8464
-114	187812.1987
-113	188222.8079
-112	187133.5996
-111	186235.4926
-110	186433.2543
-109	185775.6141
-108	186895.1101
-107	186756.6894
-106	186221.275
-105	186472.3075
-104	183996.5108
-103	184951.8476
-102	184177.3451
-101	184307.8103
-100	184128.5095
-99	185364.6197
-98	185043.7079
-97	185238.2529
-96	184355.3592
-95	184977.7896
-94	184930.6302
-93	185317.7069
-92	184532.3127
-91	184786.1876
-90	186294.4442
-89	187064.2092
-88	187966.1919
-87	187659.2829
-86	187836.6788
-85	188349.7591
-84	189286.9431
-83	189955.5391
-82	189461.2486
-81	188074.0078
-80	187584.086
-79	186385.3333
-78	185733.5309
-77	185882.6379
-76	183730.597
-75	184493.9127
-74	183198.5468
-73	184260.532
-72	184208.8832
-71	184523.8781
-70	184867.8538
-69	184915.8595
-68	184944.49
-67	184054.0531
-66	186034.7879
-65	186414.5085
-64	187571.2541
-63	189051.9767
-62	188556.6202
-61	189943.1045
-60	191291.5914
-59	191507.3338
-58	193487.0975
-57	194593.7477
-56	195373.2719
-55	196557.8289
-54	196633.2454
-53	194225.3089
-52	192459.5475
-51	189316.2303
-50	186648.0645
-49	184335.2753
-48	183084.2789
-47	183813.8593
-46	182321.1206
-45	183311.4776
-44	181999.364
-43	182679.7282
-42	183917.6114
-41	183520.6888
-40	184201.6635
-39	184748.7011
-38	185665.013
-37	187613.1607
-36	190959.3807
-35	192114.9532
-34	194519.6412
-33	197383.822
-32	201407.2945
-31	203383.2884
-30	210242.6779
-29	215856.4114
-28	220183.18
-27	223500.9792
-26	219790.6184
-25	216423.541
-24	209773.8328
-23	200793.6148
-22	199751.8304
-21	201843.2218
-20	206300.5511
-19	210759.581
-18	215135.6482
-17	219406.9857
-16	227379.095
-15	231524.1954
-14	233925.9301
-13	238727.793
-12	248070.3732
-11	255872.0999
-10	269395.0064
-9	282996.7396
-8	301659.5119
-7	317743.8854
-6	337000.5096
-5	367750.8971
-4	382540.4856
-3	417177.0248
-2	516463.4746
-1	525012.7629
0	1757518.0136
1	525012.7629
2	516463.4746
3	417177.0248
4	382540.4856
5	367750.8971
6	337000.5096
7	317743.8854
8	301659.5119
9	282996.7396
10	269395.0064
11	255872.0999
12	248070.3732
13	238727.793
14	233925.9301
15	231524.1954
16	227379.095
17	219406.9857
18	215135.6482
19	210759.581
20	206300.5511
21	201843.2218
22	199751.8304
23	200793.6148
24	209773.8328
25	216423.541
26	219790.6184
27	223500.9792
28	220183.18
29	215856.4114
30	210242.6779
31	203383.2884
32	201407.2945
33	197383.822
34	194519.6412
35	192114.9532
36	190959.3807
37	187613.1607
38	185665.013
39	184748.7011
40	184201.6635
41	183520.6888
42	183917.6114
43	182679.7282
44	181999.364
45	183311.4776
46	182321.1206
47	183813.8593
48	183084.2789
49	184335.2753
50	186648.0645
51	189316.2303
52	192459.5475
53	194225.3089
54	196633.2454
55	196557.8289
56	195373.2719
57	194593.7477
58	193487.0975
59	191507.3338
60	191291.5914
61	189943.1045
62	188556.6202
63	189051.9767
64	187571.2541
65	186414.5085
66	186034.7879
67	184054.0531
68	184944.49
69	184915.8595
70	184867.8538
71	184523.8781
72	184208.8832
73	184260.532
74	183198.5468
75	184493.9127
76	183730.597
77	185882.6379
78	185733.5309
79	186385.3333
80	187584.086
81	188074.0078
82	189461.2486
83	189955.5391
84	189286.9431
85	188349.7591
86	187836.6788
87	187659.2829
88	187966.1919
89	187064.2092
90	186294.4442
91	184786.1876
92	184532.3127
93	185317.7069
94	184930.6302
95	184977.7896
96	184355.3592
97	185238.2529
98	185043.7079
99	185364.6197
100	184128.5095
101	184307.8103
102	184177.3451
103	184951.8476
104	183996.5108
105	186472.3075
106	186221.275
107	186756.6894
108	186895.1101
109	185775.6141
110	186433.2543
111	186235.4926
112	187133.5996
113	188222.8079
114	187812.1987
115	186069.8464
116	185735.1648
117	186956.1937
118	184663.4053
119	185306.4987
120	184749.4816
121	182999.7593
122	183767.887
123	183565.5979
124	184221.1732
125	183803.2989
126	183713.5036
127	184392.8903
128	183976.405
129	184132.2098
130	184357.0461
131	185004.2961
132	184664.4159
133	183116.3982
134	184081.9769
135	183984.0204
136	184383.5596
137	183616.0591
138	184684.5219
139	184473.5887
140	182710.0559
141	184211.8813
142	182676.228
143	183602.1365
144	184422.8543
145	183550.2516
146	183476.5157
147	182961.1575
148	183006.8968
149	183845.1544
150	182306.8206
151	183415.6252
152	183263.4112
153	184432.2716
154	182702.8233
155	183800.6425
156	184191.2033
157	183080.8303
158	184108.8867
159	182477.0327
160	181608.4212
161	183033.9203
162	183149.48
163	183513.2612
164	183869.0405
165	183306.0212
166	183866.3234
167	184402.6589
168	183431.968
169	183017.576
170	183106.2195
171	183708.0445
172	182975.3148
173	183029.5197
174	184038.4538
175	183622.6902
176	182714.555
177	182737.2194
178	181680.2749
179	181516.6851
180	181644.0324
181	181841.3209
182	181655.8013
183	181563.5998
184	181043.682
185	182030.4987
186	181423.649
187	180894.5229
188	181054.7858
189	180613.4211
190	180661.3484
191	180932.404
192	181371.8329
193	180048.1404
194	181050.8588
195	180373.1086
196	180121.4566
197	180434.218
198	180006.164
199	181775.7495
200	90516.4693
