Position	Value
-200	96347.3382
-199	192727.3637
-198	192330.2109
-197	191867.5975
-196	191621.949
-195	192030.4671
-194	192087.0971
-193	192511.0161
-192	192706.0961
-191	192827.7637
-190	192419.1191
-189	192987.6863
-188	193656.0704
-187	193303.1462
-186	194121.572
-185	194209.4149
-184	193771.5427
-183	194286.3505
-182	193464.0504
-181	194213.26
-180	194228.9505
-179	194695.6755
-178	194742.1336
-177	196918.8497
-176	195804.5075
-175	197039.9579
-174	196267.6283
-173	197062.874
-172	196509.088
-171	196340.8462
-170	196051.6719
-169	195428.6641
-168	195094.9347
-167	196058.0126
-166	196511.6381
-165	196196.7585
-164	196242.2304
-163	195539.7693
-162	195886.2406
-161	195608.3506
-160	195686.6908
-159	194657.5857
-158	196735.3507
-157	194448.6333
-156	196948.2331
-155	196108.5751
-154	196007.8092
-153	197027.7846
-152	196705.867
-151	195926.1023
-150	195747.8766
-149	195935.9906
-148	196529.2283
-147	196689.7177
-146	196085.2013
-145	195957.5638
-144	196660.4514
-143	196704.9091
-142	194862.5539
-141	195893.8762
-140	193319.3365
-139	194364.4352
-138	194768.5851
-137	193762.3102
-136	193586.5893
-135	193830.1756
-134	194216.5544
-133	193774.5899
-132	196602.3548
-131	195709.1581
-130	195329.2633
-129	196074.7452
-128	194910.832
-127	196330.4384
-126	195888.1174
-125	195491.1885
-124	196393.2131
-123	195600.6984
-122	196528.0117
-121	196042.828
-120	197044.8143
-119	197121.7669
-118	196702.0954
-117	199164.4892
-116	198169.5138
-115	198495.1113
-114	199607.0896
-113	199858.7663
-112	198131.5444
-111	199366.6435
-110	198544.5006
-109	197732.0726
-108	197065.4561
-107	197659.6776
-106	197573.5937
-105	198444.4032
-104	196255.0726
-103	197314.1697
-102	196491.983
-101	197919.9628
-100	196895.0506
-99	198220.8209
-98	197426.6577
-97	197845.3605
-96	198834.0256
-95	198629.0279
-94	199240.1261
-93	200516.94
-92	200477.7655
-91	200495.1264
-90	201530.5963
-89	202283.6535
-88	202891.8375
-87	203375.5272
-86	204771.7059
-85	204577.6625
-84	205600.8585
-83	205045.1113
-82	203905.2511
-81	203328.1166
-80	201483.0683
-79	201299.7624
-78	201136.2052
-77	200084.4902
-76	198159.0169
-75	197982.7098
-74	197483.7465
-73	198444.7272
-72	197478.4625
-71	197845.1685
-70	198256.5405
-69	198663.4986
-68	198898.7651
-67	198568.9817
-66	201146.2261
-65	201024.8548
-64	202017.3257
-63	204051.7513
-62	205653.6376
-61	206471.2265
-60	209109.1492
-59	210291.4934
-58	211996.3157
-57	213065.4479
-56	214130.0082
-55	214672.4761
-54	213670.9447
-53	210488.1482
-52	207701.1696
-51	203905.0149
-50	201141.5745
-49	198124.7799
-48	197325.6495
-47	196812.7994
-46	196550.3815
-45	196822.6678
-44	195670.4089
-43	196325.8627
-42	196948.3589
-41	196569.1025
-40	196823.7351
-39	197396.0093
-38	199956.386
-37	201691.9588
-36	204610.8144
-35	207255.9563
-34	210086.047
-33	216069.959
-32	219020.5975
-31	224763.1877
-30	233729.3944
-29	241826.4362
-28	246377.9359
-27	246686.1545
-26	239967.074
-25	233770.4864
-24	225188.3303
-23	217268.6846
-22	214825.2598
-21	216515.9149
-20	220422.621
-19	223909.1076
-18	229542.8921
-17	235870.9516
-16	242458.5349
-15	246650.9877
-14	246859.7573
-13	254442.5405
-12	261384.5922
-11	270006.7789
-10	283313.9702
-9	293827.0526
-8	316220.7297
-7	331379.497
-6	352970.6018
-5	388855.95
-4	400053.4336
-3	435080.6924
-2	545108.8593
-1	552833.7349
0	1932577.7851
1	552833.7349
2	545108.8593
3	435080.6924
4	400053.4336
5	388855.95
6	352970.6018
7	331379.497
8	316220.7297
9	293827.0526
10	283313.9702
11	270006.7789
12	261384.5922
13	254442.5405
14	246859.7573
15	246650.9877
16	242458.5349
17	235870.9516
18	229542.8921
19	223909.1076
20	220422.621
21	216515.9149
22	214825.2598
23	217268.6846
24	225188.3303
25	233770.4864
26	239967.074
27	246686.1545
28	246377.9359
29	241826.4362
30	233729.3944
31	224763.1877
32	219020.5975
33	216069.959
34	210086.047
35	207255.9563
36	204610.8144
37	201691.9588
38	199956.386
39	197396.0093
40	196823.7351
41	196569.1025
42	196948.3589
43	196325.8627
44	195670.4089
45	196822.6678
46	196550.3815
47	196812.7994
48	197325.6495
49	198124.7799
50	201141.5745
51	203905.0149
52	207701.1696
53	210488.1482
54	213670.9447
55	214672.4761
56	214130.0082
57	213065.4479
58	211996.3157
59	210291.4934
60	209109.1492
61	206471.2265
62	205653.6376
63	204051.7513
64	202017.3257
65	201024.8548
66	201146.2261
67	198568.9817
68	198898.7651
69	198663.4986
70	198256.5405
71	197845.1685
72	197478.4625
73	198444.7272
74	197483.7465
75	197982.7098
76	198159.0169
77	200084.4902
78	201136.2052
79	201299.7624
80	201483.0683
81	203328.1166
82	203905.2511
83	205045.1113
84	205600.8585
85	204577.6625
86	204771.7059
87	203375.5272
88	202891.8375
89	202283.6535
90	201530.5963
91	200495.1264
92	200477.7655
93	200516.94
94	199240.1261
95	198629.0279
96	198834.0256
97	197845.3605
98	197426.6577
99	198220.8209
100	196895.0506
101	197919.9628
102	196491.983
103	197314.1697
104	196255.0726
105	198444.4032
106	197573.5937
107	197659.6776
108	197065.4561
109	197732.0726
110	198544.5006
111	199366.6435
112	198131.5444
113	199858.7663
114	199607.0896
115	198495.1113
116	198169.5138
117	199164.4892
118	196702.0954
119	197121.7669
120	197044.8143
121	196042.828
122	196528.0117
123	195600.6984
124	196393.2131
125	195491.1885
126	195888.1174
127	196330.4384
128	194910.832
129	196074.7452
130	195329.2633
131	195709.1581
132	196602.3548
133	193774.5899
134	194216.5544
135	193830.1756
136	193586.5893
137	193762.3102
138	194768.5851
139	194364.4352
140	193319.3365
141	195893.8762
142	194862.5539
143	196704.9091
144	196660.4514
145	195957.5638
146	196085.2013
147	196689.7177
148	196529.2283
149	195935.9906
150	195747.8766
151	195926.1023
152	196705.867
153	197027.7846
154	196007.8092
155	196108.5751
156	196948.2331
157	194448.6333
158	196735.3507
159	194657.5857
160	195686.6908
161	195608.3506
162	195886.2406
163	195539.7693
164	196242.2304
165	196196.7585
166	196511.6381
167	196058.0126
168	195094.9347
169	195428.6641
170	196051.6719
171	196340.8462
172	196509.088
173	197062.874
174	196267.6283
175	197039.9579
176	195804.5075
177	196918.8497
178	194742.1336
179	194695.6755
180	194228.9505
181	194213.26
182	193464.0504
183	194286.3505
184	193771.5427
185	194209.4149
186	194121.572
187	193303.1462
188	193656.0704
189	192987.6863
190	192419.1191
191	192827.7637
192	192706.0961
193	192511.0161
194	192087.0971
195	192030.4671
196	191621.949
197	191867.5975
198	192330.2109
199	192727.3637
200	96347.3382
