Position	Value
-200	76108.689
-199	152564.524
-198	152410.387
-197	152440.5581
-196	152372.6588
-195	152158.62
-194	152129.2274
-193	152513.7643
-192	152370.0072
-191	152396.8011
-190	152874.0936
-189	153353.3817
-188	152351.1069
-187	153064.9831
-186	152521.0407
-185	151675.6068
-184	152458.9911
-183	152661.0615
-182	153352.6269
-181	153273.4403
-180	153552.7457
-179	153376.7125
-178	153665.3074
-177	153950.6705
-176	153673.0603
-175	154176.1961
-174	153788.4976
-173	154311.1271
-172	154878.8178
-171	155387.9896
-170	155007.1127
-169	155016.9976
-168	156194.8258
-167	155893.5874
-166	156611.3532
-165	156946.451
-164	156636.4422
-163	155663.2024
-162	155541.5826
-161	154583.2864
-160	154259.8307
-159	155518.5263
-158	154420.4064
-157	155640.4703
-156	155634.388
-155	155920.5552
-154	155834.3816
-153	155651.113
-152	154693.4105
-151	154072.3037
-150	154761.5711
-149	154774.7372
-148	155271.2469
-147	155745.5462
-146	156267.8127
-145	156752.7388
-144	156973.5601
-143	157161.0525
-142	156736.0674
-141	157815.157
-140	157684.3456
-139	157815.8473
-138	157701.4272
-137	157173.6862
-136	157310.6465
-135	157277.1918
-134	157773.7032
-133	158233.1394
-132	159222.3567
-131	158419.4688
-130	158507.6075
-129	158774.4014
-128	157550.8306
-127	158273.8108
-126	159079.1845
-125	158448.6896
-124	158249.0797
-123	158988.0851
-122	158549.9724
-121	158982.9895
-120	159183.7166
-119	159360.2375
-118	158834.2044
-117	159564.4149
-116	160071.2242
-115	159867.1634
-114	160135.8233
-113	158751.9507
-112	159408.1672
-111	159857.299
-110	159686.8385
-109	159525.4517
-108	159673.3345
-107	159301.219
-106	159851.1167
-105	160397.5799
-104	159451.2191
-103	160331.4589
-102	160913.7096
-101	160747.8436
-100	161210.4259
-99	160928.3561
-98	160421.4404
-97	160646.4673
-96	161612.0189
-95	161410.2257
-94	162053.2334
-93	162372.0387
-92	162142.3084
-91	162793.4411
-90	163402.6087
-89	164420.1116
-88	164892.7939
-87	165524.616
-86	165043.2441
-85	165107.5155
-84	165298.0935
-83	164839.799
-82	165386.6443
-81	165692.0351
-80	164583.6688
-79	165215.0323
-78	165024.7674
-77	164476.5794
-76	164368.5645
-75	164800.5681
-74	163557.1962
-73	163387.0356
-72	164095.2045
-71	163270.4055
-70	163115.6293
-69	164270.274
-68	164217.1614
-67	165474.7226
-66	165443.486
-65	164323.2248
-64	165321.9056
-63	165539.2843
-62	165542.2239
-61	166642.5156
-60	166720.9038
-59	166920.996
-58	168661.9786
-57	170019.8776
-56	170163.4668
-55	170495.2584
-54	170255.6366
-53	170182.4144
-52	169461.7618
-51	167907.3292
-50	166796.3374
-49	165827.0835
-48	165544.79
-47	164862.8395
-46	165662.3126
-45	166954.5247
-44	166255.615
-43	165991.2634
-42	166833.7396
-41	165906.6292
-40	166145.828
-39	166853.1533
-38	166097.5304
-37	166247.003
-36	167616.4878
-35	167968.0708
-34	169782.7819
-33	171753.5834
-32	171739.6398
-31	172374.2568
-30	174661.0035
-29	175524.6433
-28	176624.2326
-27	187186.6149
-26	192986.1194
-25	190739.4622
-24	181778.4874
-23	169899.8087
-22	166653.371
-21	168741.3343
-20	173349.9332
-19	177006.3309
-18	181131.5464
-17	184047.4106
-16	188259.3479
-15	193975.7605
-14	199872.8114
-13	204715.0148
-12	210871.5476
-11	212524.0436
-10	220580.5844
-9	227142.184
-8	234937.4536
-7	246474.2542
-6	257173.9488
-5	269860.369
-4	274660.5684
-3	296967.124
-2	359317.5942
-1	387352.9758
0	1445279.2591
1	387352.9758
2	359317.5942
3	296967.124
4	274660.5684
5	269860.369
6	257173.9488
7	246474.2542
8	234937.4536
9	227142.184
10	220580.5844
11	212524.0436
12	210871.5476
13	204715.0148
14	199872.8114
15	193975.7605
16	188259.3479
17	184047.4106
18	181131.5464
19	177006.3309
20	173349.9332
21	168741.3343
22	166653.371
23	169899.8087
24	181778.4874
25	190739.4622
26	192986.1194
27	187186.6149
28	176624.2326
29	175524.6433
30	174661.0035
31	172374.2568
32	171739.6398
33	171753.5834
34	169782.7819
35	167968.0708
36	167616.4878
37	166247.003
38	166097.5304
39	166853.1533
40	166145.828
41	165906.6292
42	166833.7396
43	165991.2634
44	166255.615
45	166954.5247
46	165662.3126
47	164862.8395
48	165544.79
49	165827.0835
50	166796.3374
51	167907.3292
52	169461.7618
53	170182.4144
54	170255.6366
55	170495.2584
56	170163.4668
57	170019.8776
58	168661.9786
59	166920.996
60	166720.9038
61	166642.5156
62	165542.2239
63	165539.2843
64	165321.9056
65	164323.2248
66	165443.486
67	165474.7226
68	164217.1614
69	164270.274
70	163115.6293
71	163270.4055
72	164095.2045
73	163387.0356
74	163557.1962
75	164800.5681
76	164368.5645
77	164476.5794
78	165024.7674
79	165215.0323
80	164583.6688
81	165692.0351
82	165386.6443
83	164839.799
84	165298.0935
85	165107.5155
86	165043.2441
87	165524.616
88	164892.7939
89	164420.1116
90	163402.6087
91	162793.4411
92	162142.3084
93	162372.0387
94	162053.2334
95	161410.2257
96	161612.0189
97	160646.4673
98	160421.4404
99	160928.3561
100	161210.4259
101	160747.8436
102	160913.7096
103	160331.4589
104	159451.2191
105	160397.5799
106	159851.1167
107	159301.219
108	159673.3345
109	159525.4517
110	159686.8385
111	159857.299
112	159408.1672
113	158751.9507
114	160135.8233
115	159867.1634
116	160071.2242
117	159564.4149
118	158834.2044
119	159360.2375
120	159183.7166
121	158982.9895
122	158549.9724
123	158988.0851
124	158249.0797
125	158448.6896
126	159079.1845
127	158273.8108
128	157550.8306
129	158774.4014
130	158507.6075
131	158419.4688
132	159222.3567
133	158233.1394
134	157773.7032
135	157277.1918
136	157310.6465
137	157173.6862
138	157701.4272
139	157815.8473
140	157684.3456
141	157815.157
142	156736.0674
143	157161.0525
144	156973.5601
145	156752.7388
146	156267.8127
147	155745.5462
148	155271.2469
149	154774.7372
150	154761.5711
151	154072.3037
152	154693.4105
153	155651.113
154	155834.3816
155	155920.5552
156	155634.388
157	155640.4703
158	154420.4064
159	155518.5263
160	154259.8307
161	154583.2864
162	155541.5826
163	155663.2024
164	156636.4422
165	156946.451
166	156611.3532
167	155893.5874
168	156194.8258
169	155016.9976
170	155007.1127
171	155387.9896
172	154878.8178
173	154311.1271
174	153788.4976
175	154176.1961
176	153673.0603
177	153950.6705
178	153665.3074
179	153376.7125
180	153552.7457
181	153273.4403
182	153352.6269
183	152661.0615
184	152458.9911
185	151675.6068
186	152521.0407
187	153064.9831
188	152351.1069
189	153353.3817
190	152874.0936
191	152396.8011
192	152370.0072
193	152513.7643
194	152129.2274
195	152158.62
196	152372.6588
197	152440.5581
198	152410.387
199	152564.524
200	76108.689
