Position	Value
-200	4.7618
-199	4.2819
-198	6.4201
-197	7.9113
-196	4.8372
-195	7.3906
-194	4.5021
-193	4.1233
-192	6.3893
-191	6.5787
-190	6.745
-189	6.6556
-188	10.9777
-187	5.3358
-186	7.6298
-185	10.4259
-184	6.3615
-183	4.061
-182	6.7772
-181	5.5411
-180	7.0071
-179	5.3747
-178	10.0093
-177	7.8921
-176	10.954
-175	11.5591
-174	10.8031
-173	12.5564
-172	9.3015
-171	7.4348
-170	6.3339
-169	6.7161
-168	5.9991
-167	6.326
-166	11.5771
-165	16.2718
-164	7.6232
-163	11.2578
-162	14.0728
-161	10.0427
-160	4.5332
-159	7.8502
-158	4.8122
-157	7.7219
-156	10.4434
-155	9.2759
-154	8.4708
-153	5.6315
-152	11.8208
-151	8.6164
-150	8.2882
-149	2.941
-148	7.4573
-147	9.3016
-146	8.745
-145	2.7245
-144	8.0457
-143	7.2728
-142	9.0438
-141	6.3312
-140	7.3123
-139	5.1041
-138	10.2459
-137	3.1705
-136	6.1805
-135	11.0678
-134	13.1391
-133	11.0296
-132	8.4302
-131	10.5872
-130	3.6779
-129	7.9693
-128	7.4936
-127	5.3557
-126	6.0603
-125	7.643
-124	5.8842
-123	5.1184
-122	6.7079
-121	5.2951
-120	8.3799
-119	10.6786
-118	7.2754
-117	10.1337
-116	10.8237
-115	7.5339
-114	7.8887
-113	3.2402
-112	10.3065
-111	6.251
-110	10.0991
-109	7.7903
-108	5.1683
-107	7.7553
-106	8.4508
-105	11.6697
-104	8.9275
-103	7.0251
-102	9.1549
-101	9.7829
-100	10.2809
-99	7.0965
-98	10.4212
-97	11.3648
-96	7.6798
-95	5.4138
-94	7.5758
-93	7.6726
-92	10.6385
-91	5.4125
-90	7.6733
-89	9.2226
-88	11.7047
-87	10.0799
-86	6.4538
-85	14.1347
-84	7.9862
-83	13.2607
-82	8.2592
-81	11.8317
-80	7.1977
-79	9.4685
-78	7.5595
-77	9.6606
-76	11.0713
-75	12.2024
-74	7.3695
-73	7.4913
-72	6.7169
-71	11.0156
-70	9.6615
-69	8.5362
-68	16.5661
-67	12.7489
-66	17.484
-65	13.7901
-64	5.5975
-63	8.6469
-62	9.0335
-61	7.3601
-60	8.9283
-59	12.2187
-58	13.1512
-57	9.42
-56	9.8338
-55	13.6413
-54	17.1278
-53	8.7993
-52	10.4997
-51	11.4776
-50	15.8844
-49	14.8388
-48	16.4876
-47	15.3571
-46	11.9419
-45	8.2944
-44	12.1856
-43	12.7944
-42	9.781
-41	6.181
-40	9.8579
-39	9.6462
-38	12.0322
-37	10.9063
-36	9.3489
-35	8.9948
-34	16.8584
-33	13.311
-32	14.759
-31	17.2116
-30	13.438
-29	9.1556
-28	9.3403
-27	8.818
-26	14.751
-25	14.0794
-24	22.8462
-23	23.2606
-22	27.2304
-21	18.0352
-20	12.853
-19	9.5767
-18	12.9391
-17	13.157
-16	16.6526
-15	13.4678
-14	17.6822
-13	18.5729
-12	19.2535
-11	15.0902
-10	18.2231
-9	16.1984
-8	17.6756
-7	14.2352
-6	15.5649
-5	19.7229
-4	27.6422
-3	41.5978
-2	78.6527
-1	155.6872
0	4943.4172
1	155.6872
2	78.6527
3	41.5978
4	27.6422
5	19.7229
6	15.5649
7	14.2352
8	17.6756
9	16.1984
10	18.2231
11	15.0902
12	19.2535
13	18.5729
14	17.6822
15	13.4678
16	16.6526
17	13.157
18	12.9391
19	9.5767
20	12.853
21	18.0352
22	27.2304
23	23.2606
24	22.8462
25	14.0794
26	14.751
27	8.818
28	9.3403
29	9.1556
30	13.438
31	17.2116
32	14.759
33	13.311
34	16.8584
35	8.9948
36	9.3489
37	10.9063
38	12.0322
39	9.6462
40	9.8579
41	6.181
42	9.781
43	12.7944
44	12.1856
45	8.2944
46	11.9419
47	15.3571
48	16.4876
49	14.8388
50	15.8844
51	11.4776
52	10.4997
53	8.7993
54	17.1278
55	13.6413
56	9.8338
57	9.42
58	13.1512
59	12.2187
60	8.9283
61	7.3601
62	9.0335
63	8.6469
64	5.5975
65	13.7901
66	17.484
67	12.7489
68	16.5661
69	8.5362
70	9.6615
71	11.0156
72	6.7169
73	7.4913
74	7.3695
75	12.2024
76	11.0713
77	9.6606
78	7.5595
79	9.4685
80	7.1977
81	11.8317
82	8.2592
83	13.2607
84	7.9862
85	14.1347
86	6.4538
87	10.0799
88	11.7047
89	9.2226
90	7.6733
91	5.4125
92	10.6385
93	7.6726
94	7.5758
95	5.4138
96	7.6798
97	11.3648
98	10.4212
99	7.0965
100	10.2809
101	9.7829
102	9.1549
103	7.0251
104	8.9275
105	11.6697
106	8.4508
107	7.7553
108	5.1683
109	7.7903
110	10.0991
111	6.251
112	10.3065
113	3.2402
114	7.8887
115	7.5339
116	10.8237
117	10.1337
118	7.2754
119	10.6786
120	8.3799
121	5.2951
122	6.7079
123	5.1184
124	5.8842
125	7.643
126	6.0603
127	5.3557
128	7.4936
129	7.9693
130	3.6779
131	10.5872
132	8.4302
133	11.0296
134	13.1391
135	11.0678
136	6.1805
137	3.1705
138	10.2459
139	5.1041
140	7.3123
141	6.3312
142	9.0438
143	7.2728
144	8.0457
145	2.7245
146	8.745
147	9.3016
148	7.4573
149	2.941
150	8.2882
151	8.6164
152	11.8208
153	5.6315
154	8.4708
155	9.2759
156	10.4434
157	7.7219
158	4.8122
159	7.8502
160	4.5332
161	10.0427
162	14.0728
163	11.2578
164	7.6232
165	16.2718
166	11.5771
167	6.326
168	5.9991
169	6.7161
170	6.3339
171	7.4348
172	9.3015
173	12.5564
174	10.8031
175	11.5591
176	10.954
177	7.8921
178	10.0093
179	5.3747
180	7.0071
181	5.5411
182	6.7772
183	4.061
184	6.3615
185	10.4259
186	7.6298
187	5.3358
188	10.9777
189	6.6556
190	6.745
191	6.5787
192	6.3893
193	4.1233
194	4.5021
195	7.3906
196	4.8372
197	7.9113
198	6.4201
199	4.2819
200	4.7618
