Position	Value
-200	5595.3607
-199	11358.8276
-198	11260.522
-197	11395.5441
-196	11319.881
-195	11527.2854
-194	11491.6937
-193	11524.6011
-192	11725.7697
-191	11386.2391
-190	11473.7961
-189	11225.4844
-188	11489.2722
-187	11293.1679
-186	11831.9376
-185	11697.6144
-184	11616.7497
-183	11958.6895
-182	11780.6281
-181	11719.6006
-180	11528.8076
-179	11763.7003
-178	11502.3659
-177	11827.4453
-176	11601.0453
-175	11783.8713
-174	11652.7646
-173	11690.1132
-172	11578.6607
-171	11824.676
-170	11568.643
-169	11439.9301
-168	11363.527
-167	11449.6352
-166	11732.3936
-165	11399.2457
-164	11433.8082
-163	11498.1254
-162	11346.3613
-161	11410.6428
-160	11448.928
-159	11245.982
-158	11605.3181
-157	11138.9345
-156	11624.3617
-155	11211.024
-154	11448.3415
-153	11671.3946
-152	11687.9686
-151	11938.353
-150	11672.219
-149	11630.8293
-148	11498.275
-147	11471.4283
-146	11461.6043
-145	11440.0954
-144	11749.2883
-143	11608.1499
-142	11662.3159
-141	11888.2112
-140	11370.042
-139	11610.6891
-138	11558.8536
-137	11383.1721
-136	11326.972
-135	11272.8124
-134	11370.3847
-133	11292.1299
-132	11319.3918
-131	11118.1985
-130	11198.5118
-129	11311.7031
-128	11570.853
-127	11337.3011
-126	11788.4591
-125	11461.657
-124	11509.8523
-123	11272.2011
-122	11656.7049
-121	11436.4437
-120	11467.8709
-119	11726.7916
-118	11385.8579
-117	11443.382
-116	11652.569
-115	11797.6616
-114	11960.3456
-113	11985.2661
-112	11955.4844
-111	12008.166
-110	12167.0569
-109	12140.6504
-108	11877.1559
-107	11873.5758
-106	12008.3479
-105	11687.2209
-104	11574.693
-103	11341.5622
-102	11201.5725
-101	11667.7451
-100	11409.2481
-99	11588.4122
-98	11674.8479
-97	11645.1946
-96	11829.8232
-95	11560.7875
-94	11644.9312
-93	11466.1846
-92	11418.424
-91	11513.7873
-90	11450.2997
-89	11996.6817
-88	11568.9952
-87	11844.8185
-86	11583.5573
-85	11719.4973
-84	11980.0532
-83	11647.6694
-82	11930.4161
-81	12006.7061
-80	12094.6447
-79	11788.6158
-78	12013.9077
-77	11578.3004
-76	11458.7136
-75	11472.7953
-74	11591.3849
-73	11846.1964
-72	12067.7154
-71	12106.6425
-70	12117.7763
-69	12138.7998
-68	11964.8583
-67	12177.8558
-66	12097.7371
-65	11979.4414
-64	12016.0613
-63	11981.9781
-62	12298.9734
-61	12271.8913
-60	12461.1305
-59	12139.9639
-58	12391.4586
-57	12388.9057
-56	12479.557
-55	12396.4327
-54	12600.0512
-53	12366.2164
-52	12423.3527
-51	12152.0971
-50	11553.8359
-49	11542.1285
-48	11213.6791
-47	11698.4269
-46	11284.4475
-45	11043.3717
-44	11352.5167
-43	10984.3059
-42	11127.7674
-41	10870.7245
-40	11122.3138
-39	11537.5119
-38	11959.1125
-37	11931.5441
-36	11947.7679
-35	11908.6908
-34	12462.4333
-33	12695.6464
-32	12985.4084
-31	13334.4249
-30	14049.924
-29	14397.4219
-28	14418.9357
-27	14503.5179
-26	14012.8934
-25	13173.9389
-24	12294.4287
-23	11478.2419
-22	11733.6089
-21	12035.8414
-20	12602.0231
-19	12788.1124
-18	13356.2179
-17	14083.1973
-16	14440.384
-15	15382.7235
-14	15886.941
-13	16825.6575
-12	17914.2893
-11	19339.9905
-10	20879.0252
-9	23184.7035
-8	26637.8567
-7	28635.2281
-6	32889.4325
-5	37910.0918
-4	40069.9965
-3	46488.6674
-2	60792.1108
-1	59344.9576
0	278091.9262
1	59344.9576
2	60792.1108
3	46488.6674
4	40069.9965
5	37910.0918
6	32889.4325
7	28635.2281
8	26637.8567
9	23184.7035
10	20879.0252
11	19339.9905
12	17914.2893
13	16825.6575
14	15886.941
15	15382.7235
16	14440.384
17	14083.1973
18	13356.2179
19	12788.1124
20	12602.0231
21	12035.8414
22	11733.6089
23	11478.2419
24	12294.4287
25	13173.9389
26	14012.8934
27	14503.5179
28	14418.9357
29	14397.4219
30	14049.924
31	13334.4249
32	12985.4084
33	12695.6464
34	12462.4333
35	11908.6908
36	11947.7679
37	11931.5441
38	11959.1125
39	11537.5119
40	11122.3138
41	10870.7245
42	11127.7674
43	10984.3059
44	11352.5167
45	11043.3717
46	11284.4475
47	11698.4269
48	11213.6791
49	11542.1285
50	11553.8359
51	12152.0971
52	12423.3527
53	12366.2164
54	12600.0512
55	12396.4327
56	12479.557
57	12388.9057
58	12391.4586
59	12139.9639
60	12461.1305
61	12271.8913
62	12298.9734
63	11981.9781
64	12016.0613
65	11979.4414
66	12097.7371
67	12177.8558
68	11964.8583
69	12138.7998
70	12117.7763
71	12106.6425
72	12067.7154
73	11846.1964
74	11591.3849
75	11472.7953
76	11458.7136
77	11578.3004
78	12013.9077
79	11788.6158
80	12094.6447
81	12006.7061
82	11930.4161
83	11647.6694
84	11980.0532
85	11719.4973
86	11583.5573
87	11844.8185
88	11568.9952
89	11996.6817
90	11450.2997
91	11513.7873
92	11418.424
93	11466.1846
94	11644.9312
95	11560.7875
96	11829.8232
97	11645.1946
98	11674.8479
99	11588.4122
100	11409.2481
101	11667.7451
102	11201.5725
103	11341.5622
104	11574.693
105	11687.2209
106	12008.3479
107	11873.5758
108	11877.1559
109	12140.6504
110	12167.0569
111	12008.166
112	11955.4844
113	11985.2661
114	11960.3456
115	11797.6616
116	11652.569
117	11443.382
118	11385.8579
119	11726.7916
120	11467.8709
121	11436.4437
122	11656.7049
123	11272.2011
124	11509.8523
125	11461.657
126	11788.4591
127	11337.3011
128	11570.853
129	11311.7031
130	11198.5118
131	11118.1985
132	11319.3918
133	11292.1299
134	11370.3847
135	11272.8124
136	11326.972
137	11383.1721
138	11558.8536
139	11610.6891
140	11370.042
141	11888.2112
142	11662.3159
143	11608.1499
144	11749.2883
145	11440.0954
146	11461.6043
147	11471.4283
148	11498.275
149	11630.8293
150	11672.219
151	11938.353
152	11687.9686
153	11671.3946
154	11448.3415
155	11211.024
156	11624.3617
157	11138.9345
158	11605.3181
159	11245.982
160	11448.928
161	11410.6428
162	11346.3613
163	11498.1254
164	11433.8082
165	11399.2457
166	11732.3936
167	11449.6352
168	11363.527
169	11439.9301
170	11568.643
171	11824.676
172	11578.6607
173	11690.1132
174	11652.7646
175	11783.8713
176	11601.0453
177	11827.4453
178	11502.3659
179	11763.7003
180	11528.8076
181	11719.6006
182	11780.6281
183	11958.6895
184	11616.7497
185	11697.6144
186	11831.9376
187	11293.1679
188	11489.2722
189	11225.4844
190	11473.7961
191	11386.2391
192	11725.7697
193	11524.6011
194	11491.6937
195	11527.2854
196	11319.881
197	11395.5441
198	11260.522
199	11358.8276
200	5595.3607
