Position	Value
-200	41746.0011
-199	84346.481
-198	84104.2715
-197	84855.4224
-196	83540.6252
-195	85212.9604
-194	84645.7152
-193	85248.3486
-192	85805.5206
-191	85243.9657
-190	85629.0087
-189	85087.9341
-188	84904.0874
-187	84968.7473
-186	84810.7006
-185	83849.6582
-184	84501.5484
-183	83740.0483
-182	84484.3268
-181	84251.756
-180	84384.3906
-179	84707.9396
-178	84532.8983
-177	84822.7016
-176	84557.4194
-175	85387.6618
-174	85640.2031
-173	85492.0117
-172	85250.1521
-171	85225.1006
-170	85304.8188
-169	84780.0258
-168	85463.0996
-167	84223.4118
-166	85257.1369
-165	84788.6921
-164	84260.0062
-163	85090.3008
-162	85265.2641
-161	85090.5405
-160	85168.9469
-159	84157.0933
-158	84538.6887
-157	84894.6238
-156	85653.8411
-155	86327.6108
-154	86187.6255
-153	85930.0319
-152	85627.0427
-151	85814.3932
-150	86436.8162
-149	86162.3713
-148	86367.2779
-147	85434.5812
-146	86536.6758
-145	86028.2701
-144	86931.3625
-143	86550.0317
-142	86680.8448
-141	87596.7012
-140	86717.4633
-139	88130.6715
-138	87215.7416
-137	87976.188
-136	88215.9536
-135	88147.4531
-134	89074.0179
-133	87806.3568
-132	88060.6356
-131	87767.1548
-130	88278.9352
-129	88912.9593
-128	88261.0043
-127	88594.7434
-126	88336.1533
-125	88698.8727
-124	88550.7439
-123	89592.1762
-122	89072.2864
-121	89961.4233
-120	90130.6628
-119	90676.2535
-118	90461.8916
-117	91741.1757
-116	90805.3358
-115	91526.0285
-114	91641.8583
-113	91259.4225
-112	91100.1716
-111	91115.7066
-110	90960.6451
-109	90918.5005
-108	91149.8674
-107	91606.8616
-106	90999.5581
-105	90851.5073
-104	90379.5654
-103	91328.4443
-102	91196.323
-101	91022.8437
-100	91551.8215
-99	90892.1355
-98	90698.7288
-97	90943.6061
-96	90911.959
-95	89589.0442
-94	90337.2988
-93	90495.9632
-92	91576.0936
-91	90931.092
-90	91652.0536
-89	91882.0443
-88	91930.0821
-87	91600.0352
-86	90839.4055
-85	91081.339
-84	91349.5085
-83	91873.6312
-82	91743.4484
-81	91941.1748
-80	91786.1019
-79	91079.1498
-78	91263.8699
-77	92351.2652
-76	91501.7064
-75	92910.1791
-74	91458.764
-73	92167.8116
-72	92747.0244
-71	92992.1626
-70	93704.2068
-69	93877.6937
-68	93829.1176
-67	93505.2665
-66	93772.0323
-65	94481.9575
-64	95232.1925
-63	94881.3001
-62	94743.4558
-61	95005.4145
-60	95841.8144
-59	96201.024
-58	96070.7429
-57	96226.7933
-56	95938.7939
-55	95283.271
-54	95342.5608
-53	93563.1527
-52	94110.8792
-51	93980.7378
-50	93373.8944
-49	93207.1684
-48	92769.6151
-47	92846.7279
-46	93200.097
-45	93079.6684
-44	92329.4591
-43	93022.6432
-42	93399.9291
-41	93158.6094
-40	93540.4825
-39	93767.2255
-38	93551.8037
-37	94487.5934
-36	95251.3908
-35	94738.5169
-34	95710.8389
-33	96441.0575
-32	96483.8625
-31	98195.1817
-30	99305.6379
-29	100380.7617
-28	100480.8164
-27	100365.3102
-26	97997.5112
-25	98059.6242
-24	96704.5455
-23	98674.2502
-22	99684.8615
-21	99400.7203
-20	102199.8085
-19	104579.6939
-18	106938.4052
-17	110110.3638
-16	111924.8553
-15	116140.3836
-14	118886.1733
-13	123621.2616
-12	129602.9086
-11	135267.1432
-10	144309.5809
-9	154811.5378
-8	163581.4125
-7	176623.2487
-6	188233.2211
-5	206830.9073
-4	215221.0875
-3	223610.2965
-2	278517.7592
-1	272657.1523
0	744318.4481
1	272657.1523
2	278517.7592
3	223610.2965
4	215221.0875
5	206830.9073
6	188233.2211
7	176623.2487
8	163581.4125
9	154811.5378
10	144309.5809
11	135267.1432
12	129602.9086
13	123621.2616
14	118886.1733
15	116140.3836
16	111924.8553
17	110110.3638
18	106938.4052
19	104579.6939
20	102199.8085
21	99400.7203
22	99684.8615
23	98674.2502
24	96704.5455
25	98059.6242
26	97997.5112
27	100365.3102
28	100480.8164
29	100380.7617
30	99305.6379
31	98195.1817
32	96483.8625
33	96441.0575
34	95710.8389
35	94738.5169
36	95251.3908
37	94487.5934
38	93551.8037
39	93767.2255
40	93540.4825
41	93158.6094
42	93399.9291
43	93022.6432
44	92329.4591
45	93079.6684
46	93200.097
47	92846.7279
48	92769.6151
49	93207.1684
50	93373.8944
51	93980.7378
52	94110.8792
53	93563.1527
54	95342.5608
55	95283.271
56	95938.7939
57	96226.7933
58	96070.7429
59	96201.024
60	95841.8144
61	95005.4145
62	94743.4558
63	94881.3001
64	95232.1925
65	94481.9575
66	93772.0323
67	93505.2665
68	93829.1176
69	93877.6937
70	93704.2068
71	92992.1626
72	92747.0244
73	92167.8116
74	91458.764
75	92910.1791
76	91501.7064
77	92351.2652
78	91263.8699
79	91079.1498
80	91786.1019
81	91941.1748
82	91743.4484
83	91873.6312
84	91349.5085
85	91081.339
86	90839.4055
87	91600.0352
88	91930.0821
89	91882.0443
90	91652.0536
91	90931.092
92	91576.0936
93	90495.9632
94	90337.2988
95	89589.0442
96	90911.959
97	90943.6061
98	90698.7288
99	90892.1355
100	91551.8215
101	91022.8437
102	91196.323
103	91328.4443
104	90379.5654
105	90851.5073
106	90999.5581
107	91606.8616
108	91149.8674
109	90918.5005
110	90960.6451
111	91115.7066
112	91100.1716
113	91259.4225
114	91641.8583
115	91526.0285
116	90805.3358
117	91741.1757
118	90461.8916
119	90676.2535
120	90130.6628
121	89961.4233
122	89072.2864
123	89592.1762
124	88550.7439
125	88698.8727
126	88336.1533
127	88594.7434
128	88261.0043
129	88912.9593
130	88278.9352
131	87767.1548
132	88060.6356
133	87806.3568
134	89074.0179
135	88147.4531
136	88215.9536
137	87976.188
138	87215.7416
139	88130.6715
140	86717.4633
141	87596.7012
142	86680.8448
143	86550.0317
144	86931.3625
145	86028.2701
146	86536.6758
147	85434.5812
148	86367.2779
149	86162.3713
150	86436.8162
151	85814.3932
152	85627.0427
153	85930.0319
154	86187.6255
155	86327.6108
156	85653.8411
157	84894.6238
158	84538.6887
159	84157.0933
160	85168.9469
161	85090.5405
162	85265.2641
163	85090.3008
164	84260.0062
165	84788.6921
166	85257.1369
167	84223.4118
168	85463.0996
169	84780.0258
170	85304.8188
171	85225.1006
172	85250.1521
173	85492.0117
174	85640.2031
175	85387.6618
176	84557.4194
177	84822.7016
178	84532.8983
179	84707.9396
180	84384.3906
181	84251.756
182	84484.3268
183	83740.0483
184	84501.5484
185	83849.6582
186	84810.7006
187	84968.7473
188	84904.0874
189	85087.9341
190	85629.0087
191	85243.9657
192	85805.5206
193	85248.3486
194	84645.7152
195	85212.9604
196	83540.6252
197	84855.4224
198	84104.2715
199	84346.481
200	41746.0011
