Position	Value
-200	3020.8116
-199	6310.8026
-198	6595.9349
-197	6496.5487
-196	6211.1277
-195	6027.1305
-194	5916.915
-193	5893.9344
-192	5888.4713
-191	5859.3675
-190	5910.2435
-189	6270.943
-188	6306.0822
-187	6676.8324
-186	6413.2888
-185	6176.9404
-184	5898.9519
-183	5890.4
-182	5788.7866
-181	5743.7574
-180	5916.435
-179	5858.5412
-178	6165.7121
-177	6432.3447
-176	6528.4871
-175	6339.7139
-174	6103.6937
-173	5871.3805
-172	5825.3142
-171	5860.4436
-170	5961.4477
-169	5946.4831
-168	5971.6893
-167	6284.803
-166	6453.1408
-165	6695.9092
-164	6453.5663
-163	6251.1809
-162	6056.7526
-161	6007.8466
-160	6036.1196
-159	5955.2087
-158	5908.1176
-157	6016.9997
-156	6482.626
-155	6601.1547
-154	6868.4461
-153	6814.5671
-152	6446.0106
-151	6246.9771
-150	6320.8665
-149	6200.6586
-148	6124.8193
-147	6123.3751
-146	6203.3288
-145	6432.1206
-144	6854.7506
-143	7084.2567
-142	6795.6184
-141	6557.6577
-140	6296.4494
-139	6184.31
-138	6054.999
-137	5849.9508
-136	5952.0477
-135	6160.1087
-134	6442.6405
-133	6635.8142
-132	7035.0847
-131	6734.3886
-130	6408.3086
-129	6412.0669
-128	6244.9097
-127	6156.2408
-126	6293.7275
-125	6106.447
-124	6165.8995
-123	6457.2366
-122	6947.3061
-121	7182.4142
-120	6944.4725
-119	6684.0283
-118	6392.0458
-117	6283.8637
-116	6237.2833
-115	6235.8225
-114	6381.7323
-113	6196.6857
-112	6450.6715
-111	6776.6657
-110	7040.4514
-109	6962.7185
-108	6829.3093
-107	6640.9238
-106	6434.0217
-105	6517.8018
-104	6406.9242
-103	6444.5454
-102	6592.7817
-101	6792.2332
-100	6983.5339
-99	7289.2257
-98	6901.6595
-97	6802.1216
-96	6672.049
-95	6608.0731
-94	6404.1051
-93	6525.5781
-92	6439.0704
-91	6458.6133
-90	6858.943
-89	7035.8949
-88	7381.776
-87	7245.8704
-86	7001.7264
-85	6568.0505
-84	6599.4497
-83	6477.1563
-82	6701.3622
-81	6695.1009
-80	6544.4228
-79	7040.2805
-78	7471.3326
-77	7591.841
-76	7397.8919
-75	7235.3918
-74	6894.3961
-73	6866.4343
-72	6943.5976
-71	6859.4312
-70	6978.0652
-69	7074.0499
-68	7282.2515
-67	7549.3079
-66	7974.3396
-65	7703.6535
-64	7435.8942
-63	7119.8397
-62	6932.5066
-61	6958.5113
-60	6919.5768
-59	6881.7591
-58	6963.2017
-57	7254.8964
-56	7510.9646
-55	7693.4584
-54	7641.0746
-53	7157.4635
-52	7048.8199
-51	7025.4005
-50	7048.8367
-49	7052.4793
-48	7243.786
-47	7306.7137
-46	7527.1056
-45	7987.85
-44	8193.9723
-43	7899.7657
-42	7710.9121
-41	7360.4464
-40	7248.9634
-39	7312.3993
-38	7284.7297
-37	7474.0484
-36	7773.6124
-35	7859.8865
-34	8176.0308
-33	8546.0961
-32	8233.3472
-31	7894.9824
-30	7743.2176
-29	7562.4146
-28	7873.8843
-27	8262.0182
-26	8694.2104
-25	9265.9716
-24	9361.9025
-23	8169.8021
-22	8219.7301
-21	8002.6186
-20	7550.3152
-19	7262.538
-18	7301.5597
-17	7367.4176
-16	7492.4052
-15	7755.0291
-14	8135.3225
-13	8817.8861
-12	9767.7446
-11	10139.8441
-10	10108.048
-9	9954.0454
-8	9703.3488
-7	9634.9396
-6	9892.6054
-5	10586.9501
-4	11512.5784
-3	12690.6467
-2	14938.944
-1	19664.4458
0	83530.3161
1	19664.4458
2	14938.944
3	12690.6467
4	11512.5784
5	10586.9501
6	9892.6054
7	9634.9396
8	9703.3488
9	9954.0454
10	10108.048
11	10139.8441
12	9767.7446
13	8817.8861
14	8135.3225
15	7755.0291
16	7492.4052
17	7367.4176
18	7301.5597
19	7262.538
20	7550.3152
21	8002.6186
22	8219.7301
23	8169.8021
24	9361.9025
25	9265.9716
26	8694.2104
27	8262.0182
28	7873.8843
29	7562.4146
30	7743.2176
31	7894.9824
32	8233.3472
33	8546.0961
34	8176.0308
35	7859.8865
36	7773.6124
37	7474.0484
38	7284.7297
39	7312.3993
40	7248.9634
41	7360.4464
42	7710.9121
43	7899.7657
44	8193.9723
45	7987.85
46	7527.1056
47	7306.7137
48	7243.786
49	7052.4793
50	7048.8367
51	7025.4005
52	7048.8199
53	7157.4635
54	7641.0746
55	7693.4584
56	7510.9646
57	7254.8964
58	6963.2017
59	6881.7591
60	6919.5768
61	6958.5113
62	6932.5066
63	7119.8397
64	7435.8942
65	7703.6535
66	7974.3396
67	7549.3079
68	7282.2515
69	7074.0499
70	6978.0652
71	6859.4312
72	6943.5976
73	6866.4343
74	6894.3961
75	7235.3918
76	7397.8919
77	7591.841
78	7471.3326
79	7040.2805
80	6544.4228
81	6695.1009
82	6701.3622
83	6477.1563
84	6599.4497
85	6568.0505
86	7001.7264
87	7245.8704
88	7381.776
89	7035.8949
90	6858.943
91	6458.6133
92	6439.0704
93	6525.5781
94	6404.1051
95	6608.0731
96	6672.049
97	6802.1216
98	6901.6595
99	7289.2257
100	6983.5339
101	6792.2332
102	6592.7817
103	6444.5454
104	6406.9242
105	6517.8018
106	6434.0217
107	6640.9238
108	6829.3093
109	6962.7185
110	7040.4514
111	6776.6657
112	6450.6715
113	6196.6857
114	6381.7323
115	6235.8225
116	6237.2833
117	6283.8637
118	6392.0458
119	6684.0283
120	6944.4725
121	7182.4142
122	6947.3061
123	6457.2366
124	6165.8995
125	6106.447
126	6293.7275
127	6156.2408
128	6244.9097
129	6412.0669
130	6408.3086
131	6734.3886
132	7035.0847
133	6635.8142
134	6442.6405
135	6160.1087
136	5952.0477
137	5849.9508
138	6054.999
139	6184.31
140	6296.4494
141	6557.6577
142	6795.6184
143	7084.2567
144	6854.7506
145	6432.1206
146	6203.3288
147	6123.3751
148	6124.8193
149	6200.6586
150	6320.8665
151	6246.9771
152	6446.0106
153	6814.5671
154	6868.4461
155	6601.1547
156	6482.626
157	6016.9997
158	5908.1176
159	5955.2087
160	6036.1196
161	6007.8466
162	6056.7526
163	6251.1809
164	6453.5663
165	6695.9092
166	6453.1408
167	6284.803
168	5971.6893
169	5946.4831
170	5961.4477
171	5860.4436
172	5825.3142
173	5871.3805
174	6103.6937
175	6339.7139
176	6528.4871
177	6432.3447
178	6165.7121
179	5858.5412
180	5916.435
181	5743.7574
182	5788.7866
183	5890.4
184	5898.9519
185	6176.9404
186	6413.2888
187	6676.8324
188	6306.0822
189	6270.943
190	5910.2435
191	5859.3675
192	5888.4713
193	5893.9344
194	5916.915
195	6027.1305
196	6211.1277
197	6496.5487
198	6595.9349
199	6310.8026
200	3020.8116
