Position	Value
-200	1090.5605
-199	2162.2134
-198	2266.2616
-197	2215.4944
-196	2217.3939
-195	2246.4322
-194	2306.5167
-193	2247.5438
-192	2374.2632
-191	2226.6822
-190	2282.6253
-189	2228.9975
-188	2300.6075
-187	2262.3061
-186	2242.4968
-185	2189.1282
-184	2226.6316
-183	2242.3232
-182	2243.9146
-181	2327.4042
-180	2224.851
-179	2297.2069
-178	2269.3468
-177	2353.113
-176	2234.5587
-175	2274.4469
-174	2279.625
-173	2370.6407
-172	2246.8415
-171	2341.875
-170	2357.4253
-169	2420.4319
-168	2348.1408
-167	2448.6394
-166	2409.8902
-165	2515.5455
-164	2445.9415
-163	2456.2323
-162	2428.7369
-161	2511.648
-160	2479.8802
-159	2348.6354
-158	2326.2023
-157	2381.5932
-156	2362.6233
-155	2388.4773
-154	2367.525
-153	2427.7274
-152	2445.6106
-151	2509.8877
-150	2349.2491
-149	2399.0286
-148	2390.2224
-147	2339.6703
-146	2421.4991
-145	2345.8788
-144	2367.2477
-143	2408.0424
-142	2347.2846
-141	2436.6009
-140	2327.9398
-139	2433.83
-138	2465.8558
-137	2469.5848
-136	2409.3707
-135	2413.7553
-134	2505.4352
-133	2577.0003
-132	2398.4526
-131	2412.0711
-130	2395.4479
-129	2460.9038
-128	2405.7188
-127	2402.1857
-126	2345.2121
-125	2368.848
-124	2369.4656
-123	2362.0573
-122	2396.341
-121	2376.7735
-120	2412.2654
-119	2346.5245
-118	2420.9152
-117	2529.8929
-116	2461.0727
-115	2504.5715
-114	2430.727
-113	2426.8655
-112	2459.6191
-111	2447.9686
-110	2437.833
-109	2356.2692
-108	2434.0186
-107	2360.262
-106	2439.0139
-105	2411.4914
-104	2410.0752
-103	2455.2954
-102	2527.0875
-101	2396.2928
-100	2440.199
-99	2430.9857
-98	2376.6296
-97	2373.4298
-96	2435.3319
-95	2345.5953
-94	2336.8038
-93	2402.1927
-92	2377.3106
-91	2392.242
-90	2471.2148
-89	2444.3161
-88	2413.7283
-87	2497.8332
-86	2523.9588
-85	2489.942
-84	2541.7352
-83	2483.2129
-82	2545.8657
-81	2590.0651
-80	2432.9408
-79	2505.6759
-78	2433.0239
-77	2535.451
-76	2361.2451
-75	2361.0125
-74	2376.3143
-73	2313.5654
-72	2447.1231
-71	2344.0358
-70	2369.3965
-69	2420.0526
-68	2422.9315
-67	2418.3981
-66	2329.5712
-65	2436.5307
-64	2475.9426
-63	2486.594
-62	2439.0449
-61	2431.9071
-60	2464.0369
-59	2513.82
-58	2540.6453
-57	2503.6194
-56	2583.4035
-55	2460.4816
-54	2559.3942
-53	2565.846
-52	2525.6242
-51	2517.7956
-50	2482.4672
-49	2398.1359
-48	2431.8028
-47	2425.5671
-46	2445.5946
-45	2474.8372
-44	2431.3278
-43	2485.7837
-42	2484.5113
-41	2508.5057
-40	2506.3127
-39	2518.4082
-38	2571.0564
-37	2525.776
-36	2643.8767
-35	2536.0841
-34	2589.1483
-33	2632.3491
-32	2686.4659
-31	2778.8624
-30	2722.6449
-29	2732.0462
-28	2864.5164
-27	2938.4094
-26	2907.4789
-25	2701.2552
-24	2682.4335
-23	2631.4864
-22	2706.622
-21	2622.0027
-20	2545.871
-19	2719.8088
-18	2798.0236
-17	2830.9881
-16	2981.1412
-15	2963.2436
-14	3000.8248
-13	3048.3335
-12	3229.4572
-11	3188.9268
-10	3212.0357
-9	3285.4936
-8	3302.6239
-7	3463.9396
-6	3544.6076
-5	4203.0065
-4	4159.3405
-3	4727.914
-2	5449.4659
-1	6454.7412
0	42032.7742
1	6454.7412
2	5449.4659
3	4727.914
4	4159.3405
5	4203.0065
6	3544.6076
7	3463.9396
8	3302.6239
9	3285.4936
10	3212.0357
11	3188.9268
12	3229.4572
13	3048.3335
14	3000.8248
15	2963.2436
16	2981.1412
17	2830.9881
18	2798.0236
19	2719.8088
20	2545.871
21	2622.0027
22	2706.622
23	2631.4864
24	2682.4335
25	2701.2552
26	2907.4789
27	2938.4094
28	2864.5164
29	2732.0462
30	2722.6449
31	2778.8624
32	2686.4659
33	2632.3491
34	2589.1483
35	2536.0841
36	2643.8767
37	2525.776
38	2571.0564
39	2518.4082
40	2506.3127
41	2508.5057
42	2484.5113
43	2485.7837
44	2431.3278
45	2474.8372
46	2445.5946
47	2425.5671
48	2431.8028
49	2398.1359
50	2482.4672
51	2517.7956
52	2525.6242
53	2565.846
54	2559.3942
55	2460.4816
56	2583.4035
57	2503.6194
58	2540.6453
59	2513.82
60	2464.0369
61	2431.9071
62	2439.0449
63	2486.594
64	2475.9426
65	2436.5307
66	2329.5712
67	2418.3981
68	2422.9315
69	2420.0526
70	2369.3965
71	2344.0358
72	2447.1231
73	2313.5654
74	2376.3143
75	2361.0125
76	2361.2451
77	2535.451
78	2433.0239
79	2505.6759
80	2432.9408
81	2590.0651
82	2545.8657
83	2483.2129
84	2541.7352
85	2489.942
86	2523.9588
87	2497.8332
88	2413.7283
89	2444.3161
90	2471.2148
91	2392.242
92	2377.3106
93	2402.1927
94	2336.8038
95	2345.5953
96	2435.3319
97	2373.4298
98	2376.6296
99	2430.9857
100	2440.199
101	2396.2928
102	2527.0875
103	2455.2954
104	2410.0752
105	2411.4914
106	2439.0139
107	2360.262
108	2434.0186
109	2356.2692
110	2437.833
111	2447.9686
112	2459.6191
113	2426.8655
114	2430.727
115	2504.5715
116	2461.0727
117	2529.8929
118	2420.9152
119	2346.5245
120	2412.2654
121	2376.7735
122	2396.341
123	2362.0573
124	2369.4656
125	2368.848
126	2345.2121
127	2402.1857
128	2405.7188
129	2460.9038
130	2395.4479
131	2412.0711
132	2398.4526
133	2577.0003
134	2505.4352
135	2413.7553
136	2409.3707
137	2469.5848
138	2465.8558
139	2433.83
140	2327.9398
141	2436.6009
142	2347.2846
143	2408.0424
144	2367.2477
145	2345.8788
146	2421.4991
147	2339.6703
148	2390.2224
149	2399.0286
150	2349.2491
151	2509.8877
152	2445.6106
153	2427.7274
154	2367.525
155	2388.4773
156	2362.6233
157	2381.5932
158	2326.2023
159	2348.6354
160	2479.8802
161	2511.648
162	2428.7369
163	2456.2323
164	2445.9415
165	2515.5455
166	2409.8902
167	2448.6394
168	2348.1408
169	2420.4319
170	2357.4253
171	2341.875
172	2246.8415
173	2370.6407
174	2279.625
175	2274.4469
176	2234.5587
177	2353.113
178	2269.3468
179	2297.2069
180	2224.851
181	2327.4042
182	2243.9146
183	2242.3232
184	2226.6316
185	2189.1282
186	2242.4968
187	2262.3061
188	2300.6075
189	2228.9975
190	2282.6253
191	2226.6822
192	2374.2632
193	2247.5438
194	2306.5167
195	2246.4322
196	2217.3939
197	2215.4944
198	2266.2616
199	2162.2134
200	1090.5605
