Position	Value
-200	36.563
-199	70.3062
-198	75.1991
-197	70.5744
-196	79.3064
-195	79.5204
-194	76.2947
-193	76.0021
-192	77.263
-191	78.1003
-190	76.2822
-189	82.2515
-188	85.7004
-187	93.5641
-186	96.9701
-185	88.763
-184	76.3566
-183	74.493
-182	88.0424
-181	74.2462
-180	85.317
-179	81.8692
-178	88.6454
-177	84.2754
-176	83.337
-175	88.4502
-174	85.2963
-173	81.2619
-172	78.0163
-171	84.7392
-170	83.1727
-169	82.7196
-168	89.4035
-167	89.1741
-166	88.5793
-165	93.5584
-164	79.2972
-163	76.3488
-162	76.8702
-161	80.5824
-160	76.6907
-159	75.7726
-158	88.0299
-157	87.1464
-156	85.8412
-155	78.8227
-154	77.1524
-153	84.1702
-152	76.8907
-151	84.7046
-150	82.5593
-149	81.7433
-148	86.678
-147	87.6094
-146	88.3034
-145	91.5077
-144	93.4184
-143	86.4626
-142	89.7607
-141	87.6731
-140	81.5448
-139	85.8947
-138	88.4338
-137	71.1759
-136	80.8384
-135	85.3149
-134	85.6435
-133	90.6316
-132	80.0199
-131	84.4874
-130	80.8195
-129	89.2397
-128	83.9105
-127	96.3445
-126	88.7667
-125	87.1578
-124	95.7174
-123	93.4068
-122	83.6562
-121	81.6303
-120	90.9958
-119	86.7572
-118	83.9573
-117	77.1258
-116	80.9448
-115	70.6332
-114	79.5198
-113	83.8078
-112	73.8975
-111	79.8301
-110	72.9709
-109	83.3268
-108	91.1384
-107	88.9498
-106	79.5427
-105	86.3534
-104	86.312
-103	86.1903
-102	84.9278
-101	83.8768
-100	91.3873
-99	86.1609
-98	80.8997
-97	86.1968
-96	83.2376
-95	87.2099
-94	83.4582
-93	75.4398
-92	81.2895
-91	77.8424
-90	82.7259
-89	82.2595
-88	81.5818
-87	80.4859
-86	90.1507
-85	80.5916
-84	89.5011
-83	90.3207
-82	88.0624
-81	91.4872
-80	92.34
-79	92.1983
-78	98.1122
-77	90.1102
-76	103.6953
-75	88.2347
-74	86.8986
-73	93.0971
-72	88.1139
-71	84.1793
-70	89.5726
-69	92.4914
-68	91.1832
-67	99.6449
-66	96.597
-65	93.0228
-64	93.1185
-63	90.6508
-62	89.9491
-61	89.7067
-60	99.844
-59	93.6348
-58	99.3724
-57	108.8962
-56	100.3178
-55	99.5189
-54	102.3165
-53	99.166
-52	96.0741
-51	99.6913
-50	103.6245
-49	98.04
-48	103.4253
-47	92.6743
-46	103.7302
-45	107.4022
-44	112.8403
-43	113.1606
-42	105.3517
-41	102.4684
-40	107.7206
-39	107.2448
-38	117.1983
-37	118.2979
-36	112.3656
-35	133.5825
-34	111.8927
-33	124.8165
-32	126.3199
-31	122.3868
-30	107.1085
-29	109.5815
-28	121.7806
-27	121.0247
-26	112.2103
-25	123.3992
-24	145.6067
-23	173.1744
-22	148.6881
-21	155.7994
-20	152.8522
-19	124.953
-18	148.0801
-17	177.6245
-16	188.6587
-15	182.9558
-14	205.5423
-13	216.2847
-12	222.5442
-11	211.9
-10	223.3429
-9	232.287
-8	265.7064
-7	267.6121
-6	292.9762
-5	355.8181
-4	474.0938
-3	676.8755
-2	871.9292
-1	1253.6112
0	13036.8135
1	1253.6112
2	871.9292
3	676.8755
4	474.0938
5	355.8181
6	292.9762
7	267.6121
8	265.7064
9	232.287
10	223.3429
11	211.9
12	222.5442
13	216.2847
14	205.5423
15	182.9558
16	188.6587
17	177.6245
18	148.0801
19	124.953
20	152.8522
21	155.7994
22	148.6881
23	173.1744
24	145.6067
25	123.3992
26	112.2103
27	121.0247
28	121.7806
29	109.5815
30	107.1085
31	122.3868
32	126.3199
33	124.8165
34	111.8927
35	133.5825
36	112.3656
37	118.2979
38	117.1983
39	107.2448
40	107.7206
41	102.4684
42	105.3517
43	113.1606
44	112.8403
45	107.4022
46	103.7302
47	92.6743
48	103.4253
49	98.04
50	103.6245
51	99.6913
52	96.0741
53	99.166
54	102.3165
55	99.5189
56	100.3178
57	108.8962
58	99.3724
59	93.6348
60	99.844
61	89.7067
62	89.9491
63	90.6508
64	93.1185
65	93.0228
66	96.597
67	99.6449
68	91.1832
69	92.4914
70	89.5726
71	84.1793
72	88.1139
73	93.0971
74	86.8986
75	88.2347
76	103.6953
77	90.1102
78	98.1122
79	92.1983
80	92.34
81	91.4872
82	88.0624
83	90.3207
84	89.5011
85	80.5916
86	90.1507
87	80.4859
88	81.5818
89	82.2595
90	82.7259
91	77.8424
92	81.2895
93	75.4398
94	83.4582
95	87.2099
96	83.2376
97	86.1968
98	80.8997
99	86.1609
100	91.3873
101	83.8768
102	84.9278
103	86.1903
104	86.312
105	86.3534
106	79.5427
107	88.9498
108	91.1384
109	83.3268
110	72.9709
111	79.8301
112	73.8975
113	83.8078
114	79.5198
115	70.6332
116	80.9448
117	77.1258
118	83.9573
119	86.7572
120	90.9958
121	81.6303
122	83.6562
123	93.4068
124	95.7174
125	87.1578
126	88.7667
127	96.3445
128	83.9105
129	89.2397
130	80.8195
131	84.4874
132	80.0199
133	90.6316
134	85.6435
135	85.3149
136	80.8384
137	71.1759
138	88.4338
139	85.8947
140	81.5448
141	87.6731
142	89.7607
143	86.4626
144	93.4184
145	91.5077
146	88.3034
147	87.6094
148	86.678
149	81.7433
150	82.5593
151	84.7046
152	76.8907
153	84.1702
154	77.1524
155	78.8227
156	85.8412
157	87.1464
158	88.0299
159	75.7726
160	76.6907
161	80.5824
162	76.8702
163	76.3488
164	79.2972
165	93.5584
166	88.5793
167	89.1741
168	89.4035
169	82.7196
170	83.1727
171	84.7392
172	78.0163
173	81.2619
174	85.2963
175	88.4502
176	83.337
177	84.2754
178	88.6454
179	81.8692
180	85.317
181	74.2462
182	88.0424
183	74.493
184	76.3566
185	88.763
186	96.9701
187	93.5641
188	85.7004
189	82.2515
190	76.2822
191	78.1003
192	77.263
193	76.0021
194	76.2947
195	79.5204
196	79.3064
197	70.5744
198	75.1991
199	70.3062
200	36.563
