Position	Value
-200	9833.2764
-199	20070.7759
-198	19701.4007
-197	19814.7479
-196	20211.896
-195	20075.0212
-194	20145.4373
-193	20162.6705
-192	20569.0935
-191	19912.9085
-190	20046.575
-189	20232.2315
-188	20763.2376
-187	20213.3272
-186	20677.4862
-185	20525.7618
-184	20226.3799
-183	20926.3813
-182	20570.0879
-181	20464.0317
-180	20465.3024
-179	20582.4735
-178	20561.8557
-177	21111.6551
-176	20549.9954
-175	20319.0361
-174	20474.356
-173	20181.9403
-172	20299.6871
-171	20316.6548
-170	20246.6019
-169	20159.4626
-168	20002.2004
-167	20013.7309
-166	20563.5105
-165	20091.3892
-164	20253.8233
-163	20543.2881
-162	20434.9227
-161	20690.5043
-160	20222.3886
-159	20124.6843
-158	20617.2362
-157	20028.1701
-156	20444.6792
-155	19717.5467
-154	20266.8182
-153	20612.2834
-152	20424.3759
-151	20693.7655
-150	20556.0565
-149	20535.5612
-148	20382.7065
-147	20774.8419
-146	20405.5568
-145	20340.6501
-144	20993.5446
-143	21231.8082
-142	20718.2985
-141	20960.6158
-140	20699.3509
-139	20820.1176
-138	20459.1282
-137	20405.5047
-136	20302.845
-135	20385.416
-134	20240.2693
-133	19767.0615
-132	20576.4683
-131	19701.6039
-130	20087.7307
-129	19994.9141
-128	20118.8457
-127	20164.7213
-126	20386.6945
-125	20188.3154
-124	20376.4354
-123	19951.7361
-122	20304.6404
-121	20203.1308
-120	20631.1597
-119	20801.4757
-118	20727.5153
-117	20539.2533
-116	20715.0251
-115	20588.4705
-114	21189.1076
-113	21419.6468
-112	21070.4328
-111	21030.7883
-110	21250.4694
-109	21039.1869
-108	20726.4729
-107	20740.5062
-106	20701.0652
-105	20366.0364
-104	20415.5443
-103	19669.0741
-102	19722.4432
-101	20736.0464
-100	20034.074
-99	20497.244
-98	20809.1823
-97	20836.9828
-96	21001.4711
-95	20989.4821
-94	21034.9533
-93	20718.8834
-92	20946.1694
-91	21220.3987
-90	21282.4949
-89	21708.5727
-88	21657.0575
-87	21475.3904
-86	21448.6861
-85	21156.2479
-84	21364.2824
-83	20851.0707
-82	20873.5372
-81	20465.2737
-80	21043.9695
-79	20486.7263
-78	20455.2694
-77	19837.9663
-76	20357.0032
-75	20036.0717
-74	20480.5325
-73	20399.198
-72	20875.5141
-71	20926.9067
-70	21033.4698
-69	21168.577
-68	20843.6237
-67	21040.4694
-66	21203.2134
-65	21416.3747
-64	21390.2257
-63	21383.8581
-62	21297.5013
-61	21593.6838
-60	21979.1256
-59	21385.8091
-58	22054.0622
-57	21837.5368
-56	22191.6933
-55	21739.7763
-54	22082.3034
-53	21707.0677
-52	21648.0039
-51	21482.2574
-50	20602.8876
-49	20672.25
-48	20224.4872
-47	20344.2085
-46	19794.6699
-45	19591.1819
-44	19839.0475
-43	19830.8112
-42	19732.4364
-41	19653.9625
-40	19906.6756
-39	20443.8267
-38	20870.7222
-37	21117.671
-36	21382.428
-35	21646.2206
-34	22125.3549
-33	22673.9461
-32	23583.2932
-31	23776.6441
-30	24855.0324
-29	25579.3118
-28	25232.4949
-27	25519.1573
-26	24001.4803
-25	23506.6107
-24	21699.3775
-23	20841.5186
-22	20621.4078
-21	21269.3636
-20	22133.8446
-19	22850.1396
-18	23780.9285
-17	24946.7629
-16	26247.5701
-15	27782.1314
-14	28166.5414
-13	29997.1778
-12	32053.3047
-11	34333.5615
-10	36890.1575
-9	40714.7775
-8	46496.0869
-7	49423.011
-6	55973.6478
-5	64773.5101
-4	68670.7172
-3	78064.9617
-2	99652.0545
-1	98086.7787
0	404074.8468
1	98086.7787
2	99652.0545
3	78064.9617
4	68670.7172
5	64773.5101
6	55973.6478
7	49423.011
8	46496.0869
9	40714.7775
10	36890.1575
11	34333.5615
12	32053.3047
13	29997.1778
14	28166.5414
15	27782.1314
16	26247.5701
17	24946.7629
18	23780.9285
19	22850.1396
20	22133.8446
21	21269.3636
22	20621.4078
23	20841.5186
24	21699.3775
25	23506.6107
26	24001.4803
27	25519.1573
28	25232.4949
29	25579.3118
30	24855.0324
31	23776.6441
32	23583.2932
33	22673.9461
34	22125.3549
35	21646.2206
36	21382.428
37	21117.671
38	20870.7222
39	20443.8267
40	19906.6756
41	19653.9625
42	19732.4364
43	19830.8112
44	19839.0475
45	19591.1819
46	19794.6699
47	20344.2085
48	20224.4872
49	20672.25
50	20602.8876
51	21482.2574
52	21648.0039
53	21707.0677
54	22082.3034
55	21739.7763
56	22191.6933
57	21837.5368
58	22054.0622
59	21385.8091
60	21979.1256
61	21593.6838
62	21297.5013
63	21383.8581
64	21390.2257
65	21416.3747
66	21203.2134
67	21040.4694
68	20843.6237
69	21168.577
70	21033.4698
71	20926.9067
72	20875.5141
73	20399.198
74	20480.5325
75	20036.0717
76	20357.0032
77	19837.9663
78	20455.2694
79	20486.7263
80	21043.9695
81	20465.2737
82	20873.5372
83	20851.0707
84	21364.2824
85	21156.2479
86	21448.6861
87	21475.3904
88	21657.0575
89	21708.5727
90	21282.4949
91	21220.3987
92	20946.1694
93	20718.8834
94	21034.9533
95	20989.4821
96	21001.4711
97	20836.9828
98	20809.1823
99	20497.244
100	20034.074
101	20736.0464
102	19722.4432
103	19669.0741
104	20415.5443
105	20366.0364
106	20701.0652
107	20740.5062
108	20726.4729
109	21039.1869
110	21250.4694
111	21030.7883
112	21070.4328
113	21419.6468
114	21189.1076
115	20588.4705
116	20715.0251
117	20539.2533
118	20727.5153
119	20801.4757
120	20631.1597
121	20203.1308
122	20304.6404
123	19951.7361
124	20376.4354
125	20188.3154
126	20386.6945
127	20164.7213
128	20118.8457
129	19994.9141
130	20087.7307
131	19701.6039
132	20576.4683
133	19767.0615
134	20240.2693
135	20385.416
136	20302.845
137	20405.5047
138	20459.1282
139	20820.1176
140	20699.3509
141	20960.6158
142	20718.2985
143	21231.8082
144	20993.5446
145	20340.6501
146	20405.5568
147	20774.8419
148	20382.7065
149	20535.5612
150	20556.0565
151	20693.7655
152	20424.3759
153	20612.2834
154	20266.8182
155	19717.5467
156	20444.6792
157	20028.1701
158	20617.2362
159	20124.6843
160	20222.3886
161	20690.5043
162	20434.9227
163	20543.2881
164	20253.8233
165	20091.3892
166	20563.5105
167	20013.7309
168	20002.2004
169	20159.4626
170	20246.6019
171	20316.6548
172	20299.6871
173	20181.9403
174	20474.356
175	20319.0361
176	20549.9954
177	21111.6551
178	20561.8557
179	20582.4735
180	20465.3024
181	20464.0317
182	20570.0879
183	20926.3813
184	20226.3799
185	20525.7618
186	20677.4862
187	20213.3272
188	20763.2376
189	20232.2315
190	20046.575
191	19912.9085
192	20569.0935
193	20162.6705
194	20145.4373
195	20075.0212
196	20211.896
197	19814.7479
198	19701.4007
199	20070.7759
200	9833.2764
