Position	Value
-200	678.7584
-199	1369.1825
-198	1393.0959
-197	1410.5691
-196	1381.0971
-195	1405.8989
-194	1420.8212
-193	1358.3684
-192	1374.9836
-191	1391.9266
-190	1406.7761
-189	1442.9297
-188	1390.7643
-187	1408.209
-186	1533.9135
-185	1516.4757
-184	1470.0648
-183	1553.8831
-182	1411.2899
-181	1404.6683
-180	1466.0111
-179	1422.2168
-178	1451.7437
-177	1451.0802
-176	1495.5127
-175	1536.9488
-174	1508.6625
-173	1547.0159
-172	1529.5072
-171	1528.1762
-170	1477.8178
-169	1470.9237
-168	1444.2999
-167	1420.7173
-166	1435.2451
-165	1441.765
-164	1432.8624
-163	1458.512
-162	1572.161
-161	1542.1819
-160	1568.7881
-159	1559.2415
-158	1548.0546
-157	1583.7887
-156	1520.6511
-155	1459.5422
-154	1493.7626
-153	1461.1408
-152	1446.1428
-151	1476.9105
-150	1486.1469
-149	1480.3996
-148	1487.0894
-147	1474.0374
-146	1536.3558
-145	1495.6898
-144	1531.4763
-143	1534.8599
-142	1536.1866
-141	1571.4061
-140	1514.1139
-139	1564.1628
-138	1477.7433
-137	1536.4349
-136	1465.8439
-135	1506.6985
-134	1466.4808
-133	1453.7531
-132	1554.6084
-131	1536.996
-130	1496.8397
-129	1616.3121
-128	1566.2909
-127	1553.1723
-126	1579.6754
-125	1540.3846
-124	1564.397
-123	1573.9303
-122	1477.4232
-121	1522.9767
-120	1552.999
-119	1511.1412
-118	1555.3232
-117	1540.1173
-116	1578.4173
-115	1612.422
-114	1589.0726
-113	1609.4575
-112	1588.3519
-111	1609.9422
-110	1548.3368
-109	1579.8835
-108	1588.9678
-107	1632.3502
-106	1579.6044
-105	1578.3732
-104	1508.5394
-103	1602.4926
-102	1620.8107
-101	1586.8
-100	1734.2678
-99	1762.9599
-98	1700.2045
-97	1670.799
-96	1646.6565
-95	1623.1223
-94	1620.6783
-93	1658.8718
-92	1643.0982
-91	1688.3492
-90	1699.4976
-89	1649.7019
-88	1661.4268
-87	1637.3275
-86	1616.2461
-85	1639.9877
-84	1641.3804
-83	1618.1395
-82	1703.2697
-81	1722.843
-80	1670.2545
-79	1713.7394
-78	1743.6745
-77	1676.013
-76	1671.2177
-75	1729.1474
-74	1696.9089
-73	1687.7654
-72	1638.9135
-71	1629.5567
-70	1676.7567
-69	1689.2549
-68	1672.516
-67	1739.5605
-66	1829.9909
-65	1857.5792
-64	1841.6584
-63	1895.5571
-62	1829.2984
-61	1858.9606
-60	1793.7761
-59	1796.709
-58	1757.3655
-57	1895.9423
-56	1850.075
-55	1834.8249
-54	1802.2964
-53	1814.8436
-52	1774.5316
-51	1776.7258
-50	1893.9876
-49	1813.8834
-48	1894.7733
-47	1914.0943
-46	1943.302
-45	1870.4173
-44	1900.9035
-43	1930.488
-42	1912.3387
-41	1868.2852
-40	1847.89
-39	1864.0129
-38	1908.0755
-37	1869.8345
-36	1921.3407
-35	1870.2923
-34	1969.6292
-33	1949.1206
-32	1859.8182
-31	1876.0603
-30	1963.9651
-29	2010.7108
-28	2126.1894
-27	2281.1765
-26	2213.7318
-25	2319.6359
-24	2330.1279
-23	1917.8413
-22	1844.3522
-21	1770.2965
-20	1747.6669
-19	1772.607
-18	1802.1692
-17	1844.5797
-16	1887.1591
-15	2087.4916
-14	2052.0836
-13	2217.7381
-12	2242.9913
-11	2065.8736
-10	1992.5783
-9	1935.6201
-8	1790.935
-7	1724.4885
-6	1793.1912
-5	2072.8759
-4	2631.7978
-3	3416.6345
-2	4309.1349
-1	6254.0204
0	57674.3382
1	6254.0204
2	4309.1349
3	3416.6345
4	2631.7978
5	2072.8759
6	1793.1912
7	1724.4885
8	1790.935
9	1935.6201
10	1992.5783
11	2065.8736
12	2242.9913
13	2217.7381
14	2052.0836
15	2087.4916
16	1887.1591
17	1844.5797
18	1802.1692
19	1772.607
20	1747.6669
21	1770.2965
22	1844.3522
23	1917.8413
24	2330.1279
25	2319.6359
26	2213.7318
27	2281.1765
28	2126.1894
29	2010.7108
30	1963.9651
31	1876.0603
32	1859.8182
33	1949.1206
34	1969.6292
35	1870.2923
36	1921.3407
37	1869.8345
38	1908.0755
39	1864.0129
40	1847.89
41	1868.2852
42	1912.3387
43	1930.488
44	1900.9035
45	1870.4173
46	1943.302
47	1914.0943
48	1894.7733
49	1813.8834
50	1893.9876
51	1776.7258
52	1774.5316
53	1814.8436
54	1802.2964
55	1834.8249
56	1850.075
57	1895.9423
58	1757.3655
59	1796.709
60	1793.7761
61	1858.9606
62	1829.2984
63	1895.5571
64	1841.6584
65	1857.5792
66	1829.9909
67	1739.5605
68	1672.516
69	1689.2549
70	1676.7567
71	1629.5567
72	1638.9135
73	1687.7654
74	1696.9089
75	1729.1474
76	1671.2177
77	1676.013
78	1743.6745
79	1713.7394
80	1670.2545
81	1722.843
82	1703.2697
83	1618.1395
84	1641.3804
85	1639.9877
86	1616.2461
87	1637.3275
88	1661.4268
89	1649.7019
90	1699.4976
91	1688.3492
92	1643.0982
93	1658.8718
94	1620.6783
95	1623.1223
96	1646.6565
97	1670.799
98	1700.2045
99	1762.9599
100	1734.2678
101	1586.8
102	1620.8107
103	1602.4926
104	1508.5394
105	1578.3732
106	1579.6044
107	1632.3502
108	1588.9678
109	1579.8835
110	1548.3368
111	1609.9422
112	1588.3519
113	1609.4575
114	1589.0726
115	1612.422
116	1578.4173
117	1540.1173
118	1555.3232
119	1511.1412
120	1552.999
121	1522.9767
122	1477.4232
123	1573.9303
124	1564.397
125	1540.3846
126	1579.6754
127	1553.1723
128	1566.2909
129	1616.3121
130	1496.8397
131	1536.996
132	1554.6084
133	1453.7531
134	1466.4808
135	1506.6985
136	1465.8439
137	1536.4349
138	1477.7433
139	1564.1628
140	1514.1139
141	1571.4061
142	1536.1866
143	1534.8599
144	1531.4763
145	1495.6898
146	1536.3558
147	1474.0374
148	1487.0894
149	1480.3996
150	1486.1469
151	1476.9105
152	1446.1428
153	1461.1408
154	1493.7626
155	1459.5422
156	1520.6511
157	1583.7887
158	1548.0546
159	1559.2415
160	1568.7881
161	1542.1819
162	1572.161
163	1458.512
164	1432.8624
165	1441.765
166	1435.2451
167	1420.7173
168	1444.2999
169	1470.9237
170	1477.8178
171	1528.1762
172	1529.5072
173	1547.0159
174	1508.6625
175	1536.9488
176	1495.5127
177	1451.0802
178	1451.7437
179	1422.2168
180	1466.0111
181	1404.6683
182	1411.2899
183	1553.8831
184	1470.0648
185	1516.4757
186	1533.9135
187	1408.209
188	1390.7643
189	1442.9297
190	1406.7761
191	1391.9266
192	1374.9836
193	1358.3684
194	1420.8212
195	1405.8989
196	1381.0971
197	1410.5691
198	1393.0959
199	1369.1825
200	678.7584
