Position	Value
-200	474055.496
-199	241431.9585
-198	239332.5849
-197	239514.1966
-196	239731.4946
-195	241390.0608
-194	240837.6309
-193	242077.5338
-192	242397.4769
-191	241773.393
-190	240786.7771
-189	241816.3221
-188	241833.9831
-187	243526.3693
-186	242703.6734
-185	240856.4108
-184	243833.3338
-183	244400.3432
-182	242837.4091
-181	244563.7589
-180	244297.4195
-179	242859.0819
-178	242777.411
-177	246841.6085
-176	244846.8268
-175	243317.6493
-174	245590.1779
-173	244451.6057
-172	245767.1681
-171	246751.2905
-170	243374.7673
-169	246917.1069
-168	245794.9279
-167	246302.1269
-166	246976.3481
-165	247916.7511
-164	247420.7024
-163	250151.9674
-162	246612.1211
-161	247615.2115
-160	248982.4268
-159	248339.6961
-158	249544.2646
-157	249774.968
-156	251628.7293
-155	250363.8523
-154	250719.9076
-153	248552.9578
-152	250379.326
-151	251304.7587
-150	249204.2812
-149	249664.8071
-148	247910.3001
-147	249843.8353
-146	247987.839
-145	249683.4655
-144	250694.462
-143	248679.3135
-142	249134.51
-141	249400.6458
-140	249280.8375
-139	250000.5263
-138	250878.3663
-137	252024.6823
-136	251937.4664
-135	252924.846
-134	251701.2642
-133	252242.3297
-132	255285.8039
-131	255960.7074
-130	257316.7038
-129	257379.5742
-128	257335.6514
-127	259740.6207
-126	261606.1958
-125	258858.0058
-124	260346.4034
-123	261277.9635
-122	258852.4188
-121	259229.3428
-120	260740.5617
-119	259292.5237
-118	257095.0746
-117	256471.1343
-116	254211.6147
-115	254426.5862
-114	255438.2055
-113	257031.5709
-112	255019.1144
-111	255299.5234
-110	255589.5778
-109	255950.7432
-108	258354.5491
-107	259188.3866
-106	259104.2429
-105	259021.1572
-104	259315.107
-103	260195.9496
-102	264966.3153
-101	263437.9729
-100	265143.1096
-99	266843.1075
-98	266841.2691
-97	267479.1371
-96	271789.3058
-95	273306.3979
-94	273419.8705
-93	273769.9991
-92	274430.8735
-91	273604.007
-90	274830.0231
-89	271001.267
-88	270529.77
-87	270653.0702
-86	268670.9945
-85	268033.5495
-84	269803.1711
-83	264694.3494
-82	265959.3842
-81	266504.2807
-80	265566.1728
-79	266315.3928
-78	267504.5024
-77	268776.9461
-76	270557.8783
-75	272386.1772
-74	271879.7496
-73	274156.0602
-72	277241.9448
-71	278446.1684
-70	279954.4996
-69	284669.6381
-68	283467.9948
-67	285064.2558
-66	290825.8091
-65	292671.4008
-64	291022.4824
-63	293982.4588
-62	296193.1757
-61	295952.294
-60	294088.3173
-59	294970.046
-58	294896.9472
-57	290497.8008
-56	286911.5892
-55	287502.7034
-54	288138.0819
-53	285295.8605
-52	285774.2973
-51	284753.7929
-50	281660.9255
-49	282504.8773
-48	283190.6796
-47	282349.2867
-46	283713.5058
-45	284822.5413
-44	286008.9701
-43	289787.4993
-42	292308.2581
-41	291428.6562
-40	294036.5391
-39	297574.5881
-38	300726.842
-37	302518.3511
-36	309535.8207
-35	313169.5393
-34	321193.5513
-33	325612.7168
-32	328700.9094
-31	331241.7279
-30	337426.1243
-29	330963.8689
-28	324908.2476
-27	316763.3999
-26	313252.5429
-25	316102.4522
-24	324083.0178
-23	330066.1446
-22	335061.0459
-21	345396.9959
-20	348313.6683
-19	354495.5336
-18	363188.8145
-17	368516.4327
-16	374289.744
-15	388806.0781
-14	391657.704
-13	406113.5073
-12	424972.7254
-11	437793.1454
-10	449114.8712
-9	468287.4542
-8	480976.1519
-7	499841.4657
-6	521768.6149
-5	574179.1999
-4	587947.2173
-3	616885.1177
-2	623055.5022
-1	655179.4606
0	2210995.2904
1	655179.4606
2	623055.5022
3	616885.1177
4	587947.2173
5	574179.1999
6	521768.6149
7	499841.4657
8	480976.1519
9	468287.4542
10	449114.8712
11	437793.1454
12	424972.7254
13	406113.5073
14	391657.704
15	388806.0781
16	374289.744
17	368516.4327
18	363188.8145
19	354495.5336
20	348313.6683
21	345396.9959
22	335061.0459
23	330066.1446
24	324083.0178
25	316102.4522
26	313252.5429
27	316763.3999
28	324908.2476
29	330963.8689
30	337426.1243
31	331241.7279
32	328700.9094
33	325612.7168
34	321193.5513
35	313169.5393
36	309535.8207
37	302518.3511
38	300726.842
39	297574.5881
40	294036.5391
41	291428.6562
42	292308.2581
43	289787.4993
44	286008.9701
45	284822.5413
46	283713.5058
47	282349.2867
48	283190.6796
49	282504.8773
50	281660.9255
51	284753.7929
52	285774.2973
53	285295.8605
54	288138.0819
55	287502.7034
56	286911.5892
57	290497.8008
58	294896.9472
59	294970.046
60	294088.3173
61	295952.294
62	296193.1757
63	293982.4588
64	291022.4824
65	292671.4008
66	290825.8091
67	285064.2558
68	283467.9948
69	284669.6381
70	279954.4996
71	278446.1684
72	277241.9448
73	274156.0602
74	271879.7496
75	272386.1772
76	270557.8783
77	268776.9461
78	267504.5024
79	266315.3928
80	265566.1728
81	266504.2807
82	265959.3842
83	264694.3494
84	269803.1711
85	268033.5495
86	268670.9945
87	270653.0702
88	270529.77
89	271001.267
90	274830.0231
91	273604.007
92	274430.8735
93	273769.9991
94	273419.8705
95	273306.3979
96	271789.3058
97	267479.1371
98	266841.2691
99	266843.1075
100	265143.1096
101	263437.9729
102	264966.3153
103	260195.9496
104	259315.107
105	259021.1572
106	259104.2429
107	259188.3866
108	258354.5491
109	255950.7432
110	255589.5778
111	255299.5234
112	255019.1144
113	257031.5709
114	255438.2055
115	254426.5862
116	254211.6147
117	256471.1343
118	257095.0746
119	259292.5237
120	260740.5617
121	259229.3428
122	258852.4188
123	261277.9635
124	260346.4034
125	258858.0058
126	261606.1958
127	259740.6207
128	257335.6514
129	257379.5742
130	257316.7038
131	255960.7074
132	255285.8039
133	252242.3297
134	251701.2642
135	252924.846
136	251937.4664
137	252024.6823
138	250878.3663
139	250000.5263
140	249280.8375
141	249400.6458
142	249134.51
143	248679.3135
144	250694.462
145	249683.4655
146	247987.839
147	249843.8353
148	247910.3001
149	249664.8071
150	249204.2812
151	251304.7587
152	250379.326
153	248552.9578
154	250719.9076
155	250363.8523
156	251628.7293
157	249774.968
158	249544.2646
159	248339.6961
160	248982.4268
161	247615.2115
162	246612.1211
163	250151.9674
164	247420.7024
165	247916.7511
166	246976.3481
167	246302.1269
168	245794.9279
169	246917.1069
170	243374.7673
171	246751.2905
172	245767.1681
173	244451.6057
174	245590.1779
175	243317.6493
176	244846.8268
177	246841.6085
178	242777.411
179	242859.0819
180	244297.4195
181	244563.7589
182	242837.4091
183	244400.3432
184	243833.3338
185	240856.4108
186	242703.6734
187	243526.3693
188	241833.9831
189	241816.3221
190	240786.7771
191	241773.393
192	242397.4769
193	242077.5338
194	240837.6309
195	241390.0608
196	239731.4946
197	239514.1966
198	239332.5849
199	241431.9585
200	474055.496
