Position	Value
-200	2314.0223
-199	4714.5363
-198	4582.5776
-197	4764.4256
-196	4745.3651
-195	4595.8209
-194	4737.9498
-193	4522.3472
-192	4572.425
-191	4601.3966
-190	4663.8616
-189	4585.3414
-188	4598.9117
-187	4863.9136
-186	4694.7224
-185	4698.7394
-184	4871.0302
-183	4733.6386
-182	4612.449
-181	4702.6535
-180	4890.1249
-179	4651.3865
-178	4732.1436
-177	4822.2678
-176	4683.6329
-175	4607.4274
-174	4578.2672
-173	4937.8246
-172	4732.8557
-171	4691.5792
-170	4703.9476
-169	4812.4793
-168	4738.0152
-167	4976.3688
-166	4874.4337
-165	4852.7221
-164	4795.91
-163	4763.7052
-162	4696.5995
-161	4757.5694
-160	4855.384
-159	4802.0547
-158	4629.3212
-157	4786.3159
-156	4761.9504
-155	4732.1937
-154	4658.9758
-153	4693.1439
-152	4846.3607
-151	4787.2827
-150	4876.0735
-149	4891.5946
-148	4580.7244
-147	4851.8539
-146	4855.6167
-145	5095.9381
-144	5091.5522
-143	4820.7532
-142	5070.6401
-141	5025.634
-140	5108.3148
-139	5137.9152
-138	4724.0096
-137	5146.1425
-136	4903.3227
-135	4985.5315
-134	5055.2529
-133	4959.0715
-132	5127.6155
-131	4920.0754
-130	4921.0868
-129	5175.2214
-128	5137.8348
-127	4949.5532
-126	5145.2412
-125	5014.9251
-124	4920.4275
-123	5059.6406
-122	5005.4743
-121	4904.6082
-120	5126.8993
-119	4891.6008
-118	4766.4068
-117	4966.9548
-116	4819.2593
-115	4953.9023
-114	5170.8909
-113	5300.8842
-112	5049.2236
-111	5074.2191
-110	5080.0625
-109	5045.4168
-108	5103.9619
-107	5250.4978
-106	5058.7662
-105	5156.6054
-104	4925.54
-103	5073.1628
-102	5098.3996
-101	5040.2468
-100	5082.589
-99	5399.8233
-98	5274.4391
-97	5115.2863
-96	5395.0382
-95	5212.0235
-94	5162.0945
-93	5278.2907
-92	5047.4169
-91	5251.8295
-90	5115.7789
-89	5258.7074
-88	5274.708
-87	5161.788
-86	5252.9844
-85	5162.9194
-84	5392.8759
-83	5114.5346
-82	4913.8491
-81	5128.9699
-80	5168.6661
-79	5071.8021
-78	5237.8216
-77	5188.2011
-76	5267.5122
-75	5364.8196
-74	5387.179
-73	5215.6996
-72	5628.5937
-71	5275.7556
-70	5627.3412
-69	5962.7187
-68	5697.213
-67	5811.6113
-66	6015.3943
-65	5798.456
-64	5801.0768
-63	6079.1784
-62	6141.1887
-61	5911.5975
-60	5840.0601
-59	5904.9852
-58	6048.8625
-57	5760.8262
-56	5880.5634
-55	6093.4955
-54	5888.1217
-53	5684.1088
-52	5901.0875
-51	5832.5691
-50	5978.5864
-49	5968.6426
-48	6023.6725
-47	6194.3841
-46	5872.5305
-45	6087.0095
-44	5928.4243
-43	5932.3806
-42	6029.2312
-41	6093.816
-40	5927.9582
-39	5824.4096
-38	5853.4241
-37	6119.0709
-36	6149.9523
-35	6288.6303
-34	6272.2747
-33	6287.4262
-32	6751.6982
-31	6351.2708
-30	6814.3188
-29	6309.0545
-28	6288.0189
-27	6665.0684
-26	6208.1737
-25	5742.4679
-24	5827.005
-23	6276.9642
-22	6212.1636
-21	6487.0083
-20	6715.1073
-19	7126.9043
-18	7253.9843
-17	7337.9737
-16	7437.2074
-15	7734.1324
-14	7958.9818
-13	8405.9133
-12	9030.8082
-11	9536.196
-10	9973.1628
-9	10758.2227
-8	11644.8864
-7	12400.8527
-6	13509.7902
-5	14947.6294
-4	17557.1187
-3	21531.217
-2	22572.0738
-1	26489.0518
0	141052.69
1	26489.0518
2	22572.0738
3	21531.217
4	17557.1187
5	14947.6294
6	13509.7902
7	12400.8527
8	11644.8864
9	10758.2227
10	9973.1628
11	9536.196
12	9030.8082
13	8405.9133
14	7958.9818
15	7734.1324
16	7437.2074
17	7337.9737
18	7253.9843
19	7126.9043
20	6715.1073
21	6487.0083
22	6212.1636
23	6276.9642
24	5827.005
25	5742.4679
26	6208.1737
27	6665.0684
28	6288.0189
29	6309.0545
30	6814.3188
31	6351.2708
32	6751.6982
33	6287.4262
34	6272.2747
35	6288.6303
36	6149.9523
37	6119.0709
38	5853.4241
39	5824.4096
40	5927.9582
41	6093.816
42	6029.2312
43	5932.3806
44	5928.4243
45	6087.0095
46	5872.5305
47	6194.3841
48	6023.6725
49	5968.6426
50	5978.5864
51	5832.5691
52	5901.0875
53	5684.1088
54	5888.1217
55	6093.4955
56	5880.5634
57	5760.8262
58	6048.8625
59	5904.9852
60	5840.0601
61	5911.5975
62	6141.1887
63	6079.1784
64	5801.0768
65	5798.456
66	6015.3943
67	5811.6113
68	5697.213
69	5962.7187
70	5627.3412
71	5275.7556
72	5628.5937
73	5215.6996
74	5387.179
75	5364.8196
76	5267.5122
77	5188.2011
78	5237.8216
79	5071.8021
80	5168.6661
81	5128.9699
82	4913.8491
83	5114.5346
84	5392.8759
85	5162.9194
86	5252.9844
87	5161.788
88	5274.708
89	5258.7074
90	5115.7789
91	5251.8295
92	5047.4169
93	5278.2907
94	5162.0945
95	5212.0235
96	5395.0382
97	5115.2863
98	5274.4391
99	5399.8233
100	5082.589
101	5040.2468
102	5098.3996
103	5073.1628
104	4925.54
105	5156.6054
106	5058.7662
107	5250.4978
108	5103.9619
109	5045.4168
110	5080.0625
111	5074.2191
112	5049.2236
113	5300.8842
114	5170.8909
115	4953.9023
116	4819.2593
117	4966.9548
118	4766.4068
119	4891.6008
120	5126.8993
121	4904.6082
122	5005.4743
123	5059.6406
124	4920.4275
125	5014.9251
126	5145.2412
127	4949.5532
128	5137.8348
129	5175.2214
130	4921.0868
131	4920.0754
132	5127.6155
133	4959.0715
134	5055.2529
135	4985.5315
136	4903.3227
137	5146.1425
138	4724.0096
139	5137.9152
140	5108.3148
141	5025.634
142	5070.6401
143	4820.7532
144	5091.5522
145	5095.9381
146	4855.6167
147	4851.8539
148	4580.7244
149	4891.5946
150	4876.0735
151	4787.2827
152	4846.3607
153	4693.1439
154	4658.9758
155	4732.1937
156	4761.9504
157	4786.3159
158	4629.3212
159	4802.0547
160	4855.384
161	4757.5694
162	4696.5995
163	4763.7052
164	4795.91
165	4852.7221
166	4874.4337
167	4976.3688
168	4738.0152
169	4812.4793
170	4703.9476
171	4691.5792
172	4732.8557
173	4937.8246
174	4578.2672
175	4607.4274
176	4683.6329
177	4822.2678
178	4732.1436
179	4651.3865
180	4890.1249
181	4702.6535
182	4612.449
183	4733.6386
184	4871.0302
185	4698.7394
186	4694.7224
187	4863.9136
188	4598.9117
189	4585.3414
190	4663.8616
191	4601.3966
192	4572.425
193	4522.3472
194	4737.9498
195	4595.8209
196	4745.3651
197	4764.4256
198	4582.5776
199	4714.5363
200	2314.0223
