Position	Value
-200	11251.2
-199	11475.2
-198	11161.4
-197	10960.4
-196	11283.4
-195	11326.6
-194	11271.9
-193	11056.9
-192	11334.1
-191	11076.1
-190	11487.1
-189	11228
-188	11542.1
-187	11884.8
-186	11342.9
-185	11376.3
-184	11418.3
-183	11376.7
-182	11271.3
-181	11494.2
-180	11206.6
-179	11241.9
-178	11366.2
-177	11516.2
-176	11275.3
-175	11121.8
-174	11233.4
-173	11152.6
-172	11290.2
-171	11332.8
-170	11095.7
-169	11430.6
-168	11216.3
-167	11395.4
-166	11591.4
-165	11547.2
-164	11537.8
-163	11340
-162	11190.7
-161	11081.6
-160	11307.9
-159	11488.1
-158	11412.8
-157	11661.5
-156	11744.6
-155	11823.9
-154	12314.2
-153	12059.8
-152	12099.2
-151	11900.8
-150	11933
-149	11982.1
-148	11944.1
-147	11781.6
-146	11501.5
-145	11671.7
-144	12159.8
-143	11874.7
-142	11745.6
-141	12078.5
-140	11894.8
-139	11834.8
-138	12079.8
-137	12447.6
-136	12139.4
-135	12169.6
-134	11960.1
-133	12238.4
-132	12434.4
-131	12570.4
-130	12237.8
-129	12352.3
-128	12703.9
-127	12579.9
-126	12921.5
-125	12287.3
-124	13024.5
-123	12834
-122	13135.6
-121	12765.1
-120	12512.5
-119	12350.4
-118	12194.4
-117	12095.6
-116	11259.2
-115	11661.3
-114	11326.4
-113	11328.4
-112	11389
-111	11907.2
-110	11526.8
-109	11692.6
-108	11657.6
-107	11863.3
-106	11491.4
-105	11503.7
-104	11715.9
-103	11800.7
-102	12343.5
-101	12226.3
-100	12132.4
-99	12807.9
-98	12364.1
-97	12564.2
-96	12397.5
-95	12653.8
-94	13142.7
-93	13199.3
-92	13111.8
-91	13021.2
-90	13022.3
-89	13204.7
-88	13199.2
-87	12914.3
-86	12956
-85	12227.8
-84	12506.3
-83	11834.4
-82	11688.3
-81	12013.4
-80	12111.3
-79	12476.9
-78	11976.8
-77	12303.9
-76	12450.1
-75	12520.9
-74	12258.7
-73	12305.6
-72	13049.5
-71	12411.9
-70	12780.8
-69	13296.9
-68	12987.6
-67	13469.7
-66	14034.2
-65	14229.6
-64	14550.5
-63	14825.2
-62	14529.6
-61	14674.7
-60	14295
-59	14617.3
-58	14602.9
-57	14569.9
-56	13960.5
-55	13965.5
-54	13637.8
-53	13387.6
-52	13074.5
-51	12946.1
-50	13319.6
-49	12675.8
-48	12952
-47	13108.6
-46	13128.9
-45	13264.9
-44	13526.9
-43	13481.7
-42	13732.5
-41	13178
-40	13505.4
-39	13838.7
-38	13843.2
-37	13871.3
-36	14679.4
-35	14950.5
-34	14886.2
-33	15752.7
-32	15530.2
-31	15938.9
-30	15774.2
-29	16182.7
-28	16449.9
-27	15956.7
-26	14401.2
-25	13969.5
-24	14219.1
-23	14092.7
-22	14859.8
-21	15328.1
-20	15796.3
-19	16243.5
-18	16625.4
-17	17133
-16	17916.6
-15	18695.5
-14	19098.7
-13	19998.5
-12	22583.7
-11	24222.9
-10	25386.7
-9	27592.4
-8	30614
-7	33998.2
-6	37108.9
-5	42096
-4	47625.7
-3	55218
-2	60564
-1	65131.9
0	428163
1	65131.9
2	60564
3	55218
4	47625.7
5	42096
6	37108.9
7	33998.2
8	30614
9	27592.4
10	25386.7
11	24222.9
12	22583.7
13	19998.5
14	19098.7
15	18695.5
16	17916.6
17	17133
18	16625.4
19	16243.5
20	15796.3
21	15328.1
22	14859.8
23	14092.7
24	14219.1
25	13969.5
26	14401.2
27	15956.7
28	16449.9
29	16182.7
30	15774.2
31	15938.9
32	15530.2
33	15752.7
34	14886.2
35	14950.5
36	14679.4
37	13871.3
38	13843.2
39	13838.7
40	13505.4
41	13178
42	13732.5
43	13481.7
44	13526.9
45	13264.9
46	13128.9
47	13108.6
48	12952
49	12675.8
50	13319.6
51	12946.1
52	13074.5
53	13387.6
54	13637.8
55	13965.5
56	13960.5
57	14569.9
58	14602.9
59	14617.3
60	14295
61	14674.7
62	14529.6
63	14825.2
64	14550.5
65	14229.6
66	14034.2
67	13469.7
68	12987.6
69	13296.9
70	12780.8
71	12411.9
72	13049.5
73	12305.6
74	12258.7
75	12520.9
76	12450.1
77	12303.9
78	11976.8
79	12476.9
80	12111.3
81	12013.4
82	11688.3
83	11834.4
84	12506.3
85	12227.8
86	12956
87	12914.3
88	13199.2
89	13204.7
90	13022.3
91	13021.2
92	13111.8
93	13199.3
94	13142.7
95	12653.8
96	12397.5
97	12564.2
98	12364.1
99	12807.9
100	12132.4
101	12226.3
102	12343.5
103	11800.7
104	11715.9
105	11503.7
106	11491.4
107	11863.3
108	11657.6
109	11692.6
110	11526.8
111	11907.2
112	11389
113	11328.4
114	11326.4
115	11661.3
116	11259.2
117	12095.6
118	12194.4
119	12350.4
120	12512.5
121	12765.1
122	13135.6
123	12834
124	13024.5
125	12287.3
126	12921.5
127	12579.9
128	12703.9
129	12352.3
130	12237.8
131	12570.4
132	12434.4
133	12238.4
134	11960.1
135	12169.6
136	12139.4
137	12447.6
138	12079.8
139	11834.8
140	11894.8
141	12078.5
142	11745.6
143	11874.7
144	12159.8
145	11671.7
146	11501.5
147	11781.6
148	11944.1
149	11982.1
150	11933
151	11900.8
152	12099.2
153	12059.8
154	12314.2
155	11823.9
156	11744.6
157	11661.5
158	11412.8
159	11488.1
160	11307.9
161	11081.6
162	11190.7
163	11340
164	11537.8
165	11547.2
166	11591.4
167	11395.4
168	11216.3
169	11430.6
170	11095.7
171	11332.8
172	11290.2
173	11152.6
174	11233.4
175	11121.8
176	11275.3
177	11516.2
178	11366.2
179	11241.9
180	11206.6
181	11494.2
182	11271.3
183	11376.7
184	11418.3
185	11376.3
186	11342.9
187	11884.8
188	11542.1
189	11228
190	11487.1
191	11076.1
192	11334.1
193	11056.9
194	11271.9
195	11326.6
196	11283.4
197	10960.4
198	11161.4
199	11475.2
200	11251.2
