Position	Value
-200	9089.1592
-199	18591.344
-198	18442.8105
-197	18931.1274
-196	18480.1047
-195	19316.2321
-194	18802.0072
-193	19137.0753
-192	19063.7916
-191	19071.1098
-190	19376.8972
-189	19115.539
-188	19518.4957
-187	19219.2136
-186	19670.6556
-185	19440.2156
-184	19145.4151
-183	19776.6759
-182	19450.3737
-181	19582.6759
-180	19628.8146
-179	19448.2938
-178	19250.0725
-177	19524.1515
-176	19723.4568
-175	19251.0559
-174	19165.727
-173	18873.2252
-172	18953.8533
-171	18828.2215
-170	18811.3155
-169	19137.0501
-168	19276.6361
-167	19385.5096
-166	19425.0708
-165	19572.7125
-164	20014.487
-163	20097.5606
-162	20240.1066
-161	19985.9201
-160	20380.6372
-159	20473.1685
-158	20254.9852
-157	20621.7974
-156	20980.7907
-155	20270.6324
-154	20041.9124
-153	19941.9463
-152	20191.83
-151	20341.9038
-150	20034.6303
-149	19814.931
-148	19504.1925
-147	19376.5391
-146	19514.0641
-145	19691.348
-144	20237.6206
-143	20138.5581
-142	19505.3783
-141	19896.8955
-140	20097.4777
-139	19997.4117
-138	20001.1853
-137	19989.1947
-136	19967.3095
-135	20703.7628
-134	21014.4216
-133	20453.1288
-132	21043.3965
-131	20980.2595
-130	20998.4838
-129	21112.27
-128	21197.592
-127	20721.4562
-126	21461.0585
-125	21485.8817
-124	21997.9929
-123	22219.564
-122	22047.6009
-121	21881.2383
-120	21601.862
-119	21447.103
-118	21457.8042
-117	20919.9405
-116	20123.2584
-115	20144.9623
-114	20161.46
-113	20646.2581
-112	20632.747
-111	20883.0521
-110	20871.458
-109	20645.4835
-108	20875.5084
-107	21386.5322
-106	20921.8384
-105	20739.2745
-104	21109.8273
-103	21447.2433
-102	21777.0229
-101	21952.0067
-100	21845.9285
-99	22549.9766
-98	22783.7885
-97	22393.306
-96	23083.4496
-95	22699.1746
-94	22937.6056
-93	22680.2282
-92	22684.1719
-91	23149.7313
-90	23023.1306
-89	23018.6494
-88	22402.041
-87	22346.2002
-86	21868.4045
-85	21110.4848
-84	21658.968
-83	21294.4291
-82	21466.8023
-81	21591.9492
-80	21390.0811
-79	21489.0801
-78	22008.139
-77	21530.1074
-76	21825.7776
-75	21595.8142
-74	21592.4165
-73	21849.365
-72	22637.9943
-71	22652.4282
-70	22867.0534
-69	24148.7722
-68	24094.8215
-67	24619.9936
-66	25269.9656
-65	25929.0464
-64	26407.2015
-63	26645.9559
-62	26636.967
-61	26655.8239
-60	26107.5044
-59	25925.5706
-58	25671.8808
-57	24778.1656
-56	23990.2921
-55	23348.0717
-54	23105.9307
-53	22423.9618
-52	22385.8075
-51	22365.3276
-50	22225.4696
-49	21865.1301
-48	22187.042
-47	22097.4809
-46	21802.3931
-45	22415.8078
-44	22563.2091
-43	22285.8417
-42	23658.8362
-41	22801.249
-40	23087.6245
-39	23986.3481
-38	24521.1142
-37	24966.0674
-36	26598.0562
-35	27913.3117
-34	28944.3228
-33	30292.6395
-32	30651.7837
-31	30786.2349
-30	32176.7166
-29	31172.878
-28	30189.8415
-27	27888.8997
-26	24387.947
-25	23073.6212
-24	23184.8003
-23	22619.876
-22	22807.9927
-21	23764.8792
-20	23453.6133
-19	23603.0268
-18	24758.3718
-17	24898.5193
-16	25726.6658
-15	26644.6279
-14	27155.5373
-13	28713.0742
-12	31656.7483
-11	33983.3024
-10	35908.8085
-9	38064.5991
-8	41481.4614
-7	46712.0432
-6	52352.0686
-5	60094.1934
-4	71817.0613
-3	84547.3693
-2	95820.9026
-1	111261.8663
0	897593.1557
1	111261.8663
2	95820.9026
3	84547.3693
4	71817.0613
5	60094.1934
6	52352.0686
7	46712.0432
8	41481.4614
9	38064.5991
10	35908.8085
11	33983.3024
12	31656.7483
13	28713.0742
14	27155.5373
15	26644.6279
16	25726.6658
17	24898.5193
18	24758.3718
19	23603.0268
20	23453.6133
21	23764.8792
22	22807.9927
23	22619.876
24	23184.8003
25	23073.6212
26	24387.947
27	27888.8997
28	30189.8415
29	31172.878
30	32176.7166
31	30786.2349
32	30651.7837
33	30292.6395
34	28944.3228
35	27913.3117
36	26598.0562
37	24966.0674
38	24521.1142
39	23986.3481
40	23087.6245
41	22801.249
42	23658.8362
43	22285.8417
44	22563.2091
45	22415.8078
46	21802.3931
47	22097.4809
48	22187.042
49	21865.1301
50	22225.4696
51	22365.3276
52	22385.8075
53	22423.9618
54	23105.9307
55	23348.0717
56	23990.2921
57	24778.1656
58	25671.8808
59	25925.5706
60	26107.5044
61	26655.8239
62	26636.967
63	26645.9559
64	26407.2015
65	25929.0464
66	25269.9656
67	24619.9936
68	24094.8215
69	24148.7722
70	22867.0534
71	22652.4282
72	22637.9943
73	21849.365
74	21592.4165
75	21595.8142
76	21825.7776
77	21530.1074
78	22008.139
79	21489.0801
80	21390.0811
81	21591.9492
82	21466.8023
83	21294.4291
84	21658.968
85	21110.4848
86	21868.4045
87	22346.2002
88	22402.041
89	23018.6494
90	23023.1306
91	23149.7313
92	22684.1719
93	22680.2282
94	22937.6056
95	22699.1746
96	23083.4496
97	22393.306
98	22783.7885
99	22549.9766
100	21845.9285
101	21952.0067
102	21777.0229
103	21447.2433
104	21109.8273
105	20739.2745
106	20921.8384
107	21386.5322
108	20875.5084
109	20645.4835
110	20871.458
111	20883.0521
112	20632.747
113	20646.2581
114	20161.46
115	20144.9623
116	20123.2584
117	20919.9405
118	21457.8042
119	21447.103
120	21601.862
121	21881.2383
122	22047.6009
123	22219.564
124	21997.9929
125	21485.8817
126	21461.0585
127	20721.4562
128	21197.592
129	21112.27
130	20998.4838
131	20980.2595
132	21043.3965
133	20453.1288
134	21014.4216
135	20703.7628
136	19967.3095
137	19989.1947
138	20001.1853
139	19997.4117
140	20097.4777
141	19896.8955
142	19505.3783
143	20138.5581
144	20237.6206
145	19691.348
146	19514.0641
147	19376.5391
148	19504.1925
149	19814.931
150	20034.6303
151	20341.9038
152	20191.83
153	19941.9463
154	20041.9124
155	20270.6324
156	20980.7907
157	20621.7974
158	20254.9852
159	20473.1685
160	20380.6372
161	19985.9201
162	20240.1066
163	20097.5606
164	20014.487
165	19572.7125
166	19425.0708
167	19385.5096
168	19276.6361
169	19137.0501
170	18811.3155
171	18828.2215
172	18953.8533
173	18873.2252
174	19165.727
175	19251.0559
176	19723.4568
177	19524.1515
178	19250.0725
179	19448.2938
180	19628.8146
181	19582.6759
182	19450.3737
183	19776.6759
184	19145.4151
185	19440.2156
186	19670.6556
187	19219.2136
188	19518.4957
189	19115.539
190	19376.8972
191	19071.1098
192	19063.7916
193	19137.0753
194	18802.0072
195	19316.2321
196	18480.1047
197	18931.1274
198	18442.8105
199	18591.344
200	9089.1592
