Position	Value
-200	57424.8598
-199	113900.5278
-198	114762.6225
-197	114967.5008
-196	114241.6553
-195	114994.1441
-194	116045.5116
-193	115568.764
-192	116468.273
-191	115852.1881
-190	116003.8488
-189	116492.9153
-188	116850.4113
-187	115885.9176
-186	116104.6243
-185	116539.87
-184	117352.569
-183	117422.8568
-182	116229.2344
-181	117891.0557
-180	117697.7715
-179	116204.0883
-178	116097.9564
-177	117479.9487
-176	117758.8767
-175	116317.9748
-174	117821.4136
-173	117327.1497
-172	117426.7175
-171	117797.3249
-170	117194.4802
-169	118026.4489
-168	117998.4655
-167	118192.7859
-166	117973.5268
-165	118247.0121
-164	118205.4405
-163	118591.1828
-162	118304.8554
-161	117194.4918
-160	118553.0093
-159	119393.1414
-158	118557.5062
-157	118008.8315
-156	119869.1219
-155	118761.7455
-154	117928.4985
-153	118611.3381
-152	118883.6143
-151	119285.3632
-150	118605.5513
-149	118148.3371
-148	119133.1479
-147	119300.5049
-146	118335.8879
-145	118648.4875
-144	119553.3921
-143	117952.3264
-142	117626.6899
-141	118481.8809
-140	119252.8556
-139	119375.2689
-138	118755.4193
-137	118756.4495
-136	119305.0372
-135	121168.7159
-134	120048.5473
-133	119724.6338
-132	121997.6292
-131	121583.7873
-130	123366.6755
-129	122668.4451
-128	122863.693
-127	123389.7668
-126	123297.0321
-125	122811.8608
-124	122160.6678
-123	122055.5361
-122	122218.2893
-121	121254.0748
-120	122303.1842
-119	121813.2242
-118	121935.4754
-117	121685.5541
-116	120601.9676
-115	121359.9035
-114	121779.2125
-113	121917.7018
-112	121055.8367
-111	121950.4524
-110	121736.5972
-109	121385.3375
-108	123003.1075
-107	122115.3916
-106	122131.9141
-105	121835.2169
-104	121337.3353
-103	121803.3563
-102	122863.4178
-101	122716.0148
-100	123804.255
-99	124197.4344
-98	124589.9924
-97	124481.8548
-96	126375.9695
-95	125641.5658
-94	125807.0035
-93	126817.1894
-92	125962.734
-91	125505.7834
-90	125234.9764
-89	125250.3116
-88	125997.3109
-87	125718.2127
-86	124775.7881
-85	123395.6711
-84	124653.1372
-83	121960.5751
-82	124193.5816
-81	124719.0302
-80	123520.5749
-79	124576.3986
-78	124351.9607
-77	125320.1957
-76	125329.3819
-75	126193.0857
-74	124310.9101
-73	125535.914
-72	126688.2613
-71	126705.4738
-70	127837.7187
-69	129423.8705
-68	129481.9001
-67	129351.3135
-66	132864.9682
-65	132639.4458
-64	131942.1955
-63	133122.7262
-62	134453.4547
-61	133618.4482
-60	134075.3839
-59	134091.2436
-58	133586.1718
-57	131453.3229
-56	130988.829
-55	130387.6429
-54	129944.5711
-53	129718.2101
-52	130332.0156
-51	131463.5736
-50	129522.129
-49	129326.8265
-48	130524.8628
-47	128867.8576
-46	128360.4435
-45	129404.2041
-44	128116.7723
-43	129693.3175
-42	130583.1706
-41	129905.4288
-40	130476.2176
-39	130796.9086
-38	131771.506
-37	131758.3862
-36	134592.8717
-35	135293.098
-34	136705.3332
-33	139525.9199
-32	139837.5709
-31	138716.8188
-30	147996.7945
-29	143614.7846
-28	137960.9463
-27	130384.8266
-26	131010.7502
-25	130148.9063
-24	131490.7608
-23	134141.1582
-22	137901.6955
-21	143598.6608
-20	146885.4079
-19	150166.932
-18	151612.1763
-17	154730.688
-16	153642.1194
-15	155810.8342
-14	157311.8351
-13	162424.2969
-12	169928.1425
-11	173883.4181
-10	175454.6128
-9	182736.0153
-8	185902.5452
-7	193924.5276
-6	201252.4703
-5	219033.9869
-4	237725.8386
-3	261368.5572
-2	262307.1549
-1	278738.6672
0	1000621.3407
1	278738.6672
2	262307.1549
3	261368.5572
4	237725.8386
5	219033.9869
6	201252.4703
7	193924.5276
8	185902.5452
9	182736.0153
10	175454.6128
11	173883.4181
12	169928.1425
13	162424.2969
14	157311.8351
15	155810.8342
16	153642.1194
17	154730.688
18	151612.1763
19	150166.932
20	146885.4079
21	143598.6608
22	137901.6955
23	134141.1582
24	131490.7608
25	130148.9063
26	131010.7502
27	130384.8266
28	137960.9463
29	143614.7846
30	147996.7945
31	138716.8188
32	139837.5709
33	139525.9199
34	136705.3332
35	135293.098
36	134592.8717
37	131758.3862
38	131771.506
39	130796.9086
40	130476.2176
41	129905.4288
42	130583.1706
43	129693.3175
44	128116.7723
45	129404.2041
46	128360.4435
47	128867.8576
48	130524.8628
49	129326.8265
50	129522.129
51	131463.5736
52	130332.0156
53	129718.2101
54	129944.5711
55	130387.6429
56	130988.829
57	131453.3229
58	133586.1718
59	134091.2436
60	134075.3839
61	133618.4482
62	134453.4547
63	133122.7262
64	131942.1955
65	132639.4458
66	132864.9682
67	129351.3135
68	129481.9001
69	129423.8705
70	127837.7187
71	126705.4738
72	126688.2613
73	125535.914
74	124310.9101
75	126193.0857
76	125329.3819
77	125320.1957
78	124351.9607
79	124576.3986
80	123520.5749
81	124719.0302
82	124193.5816
83	121960.5751
84	124653.1372
85	123395.6711
86	124775.7881
87	125718.2127
88	125997.3109
89	125250.3116
90	125234.9764
91	125505.7834
92	125962.734
93	126817.1894
94	125807.0035
95	125641.5658
96	126375.9695
97	124481.8548
98	124589.9924
99	124197.4344
100	123804.255
101	122716.0148
102	122863.4178
103	121803.3563
104	121337.3353
105	121835.2169
106	122131.9141
107	122115.3916
108	123003.1075
109	121385.3375
110	121736.5972
111	121950.4524
112	121055.8367
113	121917.7018
114	121779.2125
115	121359.9035
116	120601.9676
117	121685.5541
118	121935.4754
119	121813.2242
120	122303.1842
121	121254.0748
122	122218.2893
123	122055.5361
124	122160.6678
125	122811.8608
126	123297.0321
127	123389.7668
128	122863.693
129	122668.4451
130	123366.6755
131	121583.7873
132	121997.6292
133	119724.6338
134	120048.5473
135	121168.7159
136	119305.0372
137	118756.4495
138	118755.4193
139	119375.2689
140	119252.8556
141	118481.8809
142	117626.6899
143	117952.3264
144	119553.3921
145	118648.4875
146	118335.8879
147	119300.5049
148	119133.1479
149	118148.3371
150	118605.5513
151	119285.3632
152	118883.6143
153	118611.3381
154	117928.4985
155	118761.7455
156	119869.1219
157	118008.8315
158	118557.5062
159	119393.1414
160	118553.0093
161	117194.4918
162	118304.8554
163	118591.1828
164	118205.4405
165	118247.0121
166	117973.5268
167	118192.7859
168	117998.4655
169	118026.4489
170	117194.4802
171	117797.3249
172	117426.7175
173	117327.1497
174	117821.4136
175	116317.9748
176	117758.8767
177	117479.9487
178	116097.9564
179	116204.0883
180	117697.7715
181	117891.0557
182	116229.2344
183	117422.8568
184	117352.569
185	116539.87
186	116104.6243
187	115885.9176
188	116850.4113
189	116492.9153
190	116003.8488
191	115852.1881
192	116468.273
193	115568.764
194	116045.5116
195	114994.1441
196	114241.6553
197	114967.5008
198	114762.6225
199	113900.5278
200	57424.8598
