Position	Value
-200	313.713
-199	635.0251
-198	581.5975
-197	602.2653
-196	662.4559
-195	672.5625
-194	616.65
-193	583.6437
-192	716.4709
-191	653.1914
-190	640.339
-189	684.3282
-188	755.5152
-187	693.2125
-186	737.6612
-185	661.1183
-184	755.6929
-183	787.0128
-182	703.0246
-181	686.958
-180	693.5071
-179	661.3135
-178	737.3153
-177	730.6398
-176	636.3588
-175	642.4742
-174	614.0882
-173	644.0201
-172	700.0343
-171	666.6896
-170	630.8242
-169	683.0248
-168	669.4942
-167	710.327
-166	679.4849
-165	729.8014
-164	706.7144
-163	739.9764
-162	643.5002
-161	664.0084
-160	701.3948
-159	730.599
-158	661.3509
-157	749.4871
-156	726.792
-155	669.7059
-154	757.0164
-153	748.3024
-152	778.3214
-151	748.1362
-150	733.6982
-149	819.576
-148	626.9646
-147	678.3955
-146	719.0113
-145	700.4482
-144	607.4267
-143	728.3614
-142	655.7555
-141	776.1113
-140	676.6775
-139	756.2046
-138	645.4254
-137	805.9769
-136	709.9007
-135	704.6779
-134	673.9866
-133	735.2586
-132	704.895
-131	687.2941
-130	769.341
-129	796.8372
-128	791.6618
-127	746.2646
-126	806.2367
-125	767.5877
-124	798.2701
-123	857.5129
-122	848.9292
-121	865.829
-120	900.0103
-119	829.9316
-118	834.0176
-117	736.1175
-116	810.9068
-115	771.918
-114	743.793
-113	733.6858
-112	784.706
-111	812.5048
-110	774.9077
-109	739.7246
-108	704.3518
-107	830.9465
-106	714.2093
-105	714.7741
-104	848.5688
-103	672.2328
-102	881.9621
-101	792.5715
-100	862.9899
-99	845.2862
-98	752.1642
-97	836.2816
-96	831.362
-95	831.8551
-94	817.5951
-93	882.8559
-92	825.948
-91	932.6225
-90	783.9801
-89	822.7203
-88	901.5503
-87	800.4301
-86	849.0452
-85	718.9674
-84	782.9467
-83	636.203
-82	691.7405
-81	629.9746
-80	599.2482
-79	697.7184
-78	703.4375
-77	659.1979
-76	777.5384
-75	717.0533
-74	719.1458
-73	776.3504
-72	825.1333
-71	768.7044
-70	914.0329
-69	856.251
-68	859.0988
-67	899.4512
-66	884.0909
-65	1062.9472
-64	924.45
-63	1147.0613
-62	1061.131
-61	948.6362
-60	966.0466
-59	1086.1536
-58	1149.051
-57	978.3497
-56	924.9818
-55	1018.7512
-54	910.8753
-53	814.5732
-52	793.0311
-51	742.2602
-50	707.324
-49	699.028
-48	577.7068
-47	736.3561
-46	688.0362
-45	737.4874
-44	802.9132
-43	798.3462
-42	869.2375
-41	771.0097
-40	828.0856
-39	879.219
-38	910.6751
-37	953.4247
-36	1004.0268
-35	1042.5879
-34	1150.0094
-33	1068.037
-32	1185.7683
-31	1238.5182
-30	1345.6229
-29	1187.9289
-28	1176.9792
-27	1231.3042
-26	1081.0734
-25	986.8418
-24	888.2653
-23	914.1815
-22	821.1083
-21	826.9737
-20	807.9186
-19	846.9103
-18	788.9273
-17	785.7105
-16	863.5327
-15	885.0753
-14	932.51
-13	869.3198
-12	1099.3033
-11	1122.4749
-10	1162.4305
-9	1425.3052
-8	1547.7435
-7	1647.0549
-6	1982.112
-5	2118.2174
-4	2512.7066
-3	2807.0581
-2	3068.8378
-1	3157.8755
0	67903.4907
1	3157.8755
2	3068.8378
3	2807.0581
4	2512.7066
5	2118.2174
6	1982.112
7	1647.0549
8	1547.7435
9	1425.3052
10	1162.4305
11	1122.4749
12	1099.3033
13	869.3198
14	932.51
15	885.0753
16	863.5327
17	785.7105
18	788.9273
19	846.9103
20	807.9186
21	826.9737
22	821.1083
23	914.1815
24	888.2653
25	986.8418
26	1081.0734
27	1231.3042
28	1176.9792
29	1187.9289
30	1345.6229
31	1238.5182
32	1185.7683
33	1068.037
34	1150.0094
35	1042.5879
36	1004.0268
37	953.4247
38	910.6751
39	879.219
40	828.0856
41	771.0097
42	869.2375
43	798.3462
44	802.9132
45	737.4874
46	688.0362
47	736.3561
48	577.7068
49	699.028
50	707.324
51	742.2602
52	793.0311
53	814.5732
54	910.8753
55	1018.7512
56	924.9818
57	978.3497
58	1149.051
59	1086.1536
60	966.0466
61	948.6362
62	1061.131
63	1147.0613
64	924.45
65	1062.9472
66	884.0909
67	899.4512
68	859.0988
69	856.251
70	914.0329
71	768.7044
72	825.1333
73	776.3504
74	719.1458
75	717.0533
76	777.5384
77	659.1979
78	703.4375
79	697.7184
80	599.2482
81	629.9746
82	691.7405
83	636.203
84	782.9467
85	718.9674
86	849.0452
87	800.4301
88	901.5503
89	822.7203
90	783.9801
91	932.6225
92	825.948
93	882.8559
94	817.5951
95	831.8551
96	831.362
97	836.2816
98	752.1642
99	845.2862
100	862.9899
101	792.5715
102	881.9621
103	672.2328
104	848.5688
105	714.7741
106	714.2093
107	830.9465
108	704.3518
109	739.7246
110	774.9077
111	812.5048
112	784.706
113	733.6858
114	743.793
115	771.918
116	810.9068
117	736.1175
118	834.0176
119	829.9316
120	900.0103
121	865.829
122	848.9292
123	857.5129
124	798.2701
125	767.5877
126	806.2367
127	746.2646
128	791.6618
129	796.8372
130	769.341
131	687.2941
132	704.895
133	735.2586
134	673.9866
135	704.6779
136	709.9007
137	805.9769
138	645.4254
139	756.2046
140	676.6775
141	776.1113
142	655.7555
143	728.3614
144	607.4267
145	700.4482
146	719.0113
147	678.3955
148	626.9646
149	819.576
150	733.6982
151	748.1362
152	778.3214
153	748.3024
154	757.0164
155	669.7059
156	726.792
157	749.4871
158	661.3509
159	730.599
160	701.3948
161	664.0084
162	643.5002
163	739.9764
164	706.7144
165	729.8014
166	679.4849
167	710.327
168	669.4942
169	683.0248
170	630.8242
171	666.6896
172	700.0343
173	644.0201
174	614.0882
175	642.4742
176	636.3588
177	730.6398
178	737.3153
179	661.3135
180	693.5071
181	686.958
182	703.0246
183	787.0128
184	755.6929
185	661.1183
186	737.6612
187	693.2125
188	755.5152
189	684.3282
190	640.339
191	653.1914
192	716.4709
193	583.6437
194	616.65
195	672.5625
196	662.4559
197	602.2653
198	581.5975
199	635.0251
200	313.713
