Position	Value
-200	34490.2725
-199	68522.1913
-198	68944.2081
-197	68750.3386
-196	68120.2078
-195	70525.0181
-194	69711.2227
-193	69048.7872
-192	69126.6075
-191	68765.6626
-190	69449.8465
-189	69596.6845
-188	69596.7329
-187	68693.9642
-186	70096.2081
-185	68737.9055
-184	69473.4452
-183	69689.6126
-182	68859.7315
-181	71038.1852
-180	69946.6673
-179	68395.785
-178	70042.5963
-177	70814.0343
-176	68829.7142
-175	69867.9878
-174	70493.5364
-173	70281.7873
-172	70902.866
-171	70175.9615
-170	69425.2928
-169	71679.1102
-168	71473.0852
-167	70227.5773
-166	70823.1294
-165	72386.9773
-164	71218.8665
-163	71882.3109
-162	71819.9143
-161	70759.7952
-160	71650.3709
-159	71354.9879
-158	70553.6286
-157	71355.1199
-156	72936.1174
-155	70950.1515
-154	71413.3191
-153	72002.7187
-152	72596.8872
-151	72369.94
-150	71158.6519
-149	70796.7999
-148	70752.6131
-147	71505.5726
-146	70729.8392
-145	72051.9993
-144	71887.567
-143	71373.8684
-142	71313.39
-141	70366.694
-140	72137.7477
-139	73016.1796
-138	72642.972
-137	71998.9397
-136	72511.0594
-135	74068.8159
-134	73140.4941
-133	72388.3309
-132	74407.8449
-131	73942.0423
-130	74264.1453
-129	74879.8659
-128	74272.0247
-127	74398.7533
-126	75878.761
-125	73537.3948
-124	75332.333
-123	74899.722
-122	73766.9586
-121	73657.3109
-120	74265.2068
-119	74292.1968
-118	73398.5983
-117	73013.855
-116	71631.3266
-115	73198.6492
-114	73902.748
-113	74104.5213
-112	72161.8951
-111	73502.3461
-110	74629.5893
-109	72701.0247
-108	74858.0013
-107	74690.2186
-106	74240.3409
-105	75399.2359
-104	74267.9489
-103	74275.0297
-102	75688.5357
-101	76011.9536
-100	75569.0848
-99	77510.1865
-98	77632.533
-97	77096.855
-96	78018.8525
-95	77907.6759
-94	77881.9458
-93	78210.6285
-92	77411.2889
-91	77362.338
-90	76312.7005
-89	76074.7947
-88	76069.6145
-87	76639.564
-86	75656.0621
-85	73990.2825
-84	75830.1854
-83	72972.7751
-82	74408.0106
-81	76491.051
-80	74383.2196
-79	74593.1721
-78	75209.682
-77	76487.7672
-76	75831.2887
-75	77877.7562
-74	75893.3994
-73	77751.7974
-72	77988.1189
-71	77146.6052
-70	79707.5874
-69	82344.5369
-68	81011.8628
-67	82368.5288
-66	84376.6556
-65	84070.0069
-64	84062.035
-63	84207.03
-62	85212.3951
-61	83797.8906
-60	83422.4027
-59	82359.5
-58	82360.8572
-57	80656.6365
-56	79676.8901
-55	79139.8398
-54	78121.9952
-53	77536.2706
-52	79023.0196
-51	77463.8098
-50	76601.007
-49	78529.6207
-48	79277.7177
-47	76908.185
-46	77567.8042
-45	78978.6001
-44	78217.1626
-43	78927.6386
-42	80310.3856
-41	80148.7468
-40	81434.0994
-39	82074.5329
-38	82892.4693
-37	82961.481
-36	86477.0261
-35	87585.7851
-34	88924.3148
-33	90410.2892
-32	92512.4342
-31	91970.0191
-30	91318.3827
-29	92931.8058
-28	92878.4171
-27	86917.9468
-26	82911.0335
-25	82020.4166
-24	82669.2548
-23	81935.0942
-22	83246.6923
-21	87375.1152
-20	85515.9431
-19	87295.9686
-18	88609.9872
-17	89673.2862
-16	88531.1346
-15	89472.8531
-14	90978.679
-13	91851.4634
-12	95848.4977
-11	96702.9715
-10	94995.9343
-9	99564.5181
-8	100076.5668
-7	102302.3082
-6	105069.3345
-5	107660.8354
-4	120599.1757
-3	128935.0221
-2	104527.1921
-1	101882.3736
0	629589.9557
1	101882.3736
2	104527.1921
3	128935.0221
4	120599.1757
5	107660.8354
6	105069.3345
7	102302.3082
8	100076.5668
9	99564.5181
10	94995.9343
11	96702.9715
12	95848.4977
13	91851.4634
14	90978.679
15	89472.8531
16	88531.1346
17	89673.2862
18	88609.9872
19	87295.9686
20	85515.9431
21	87375.1152
22	83246.6923
23	81935.0942
24	82669.2548
25	82020.4166
26	82911.0335
27	86917.9468
28	92878.4171
29	92931.8058
30	91318.3827
31	91970.0191
32	92512.4342
33	90410.2892
34	88924.3148
35	87585.7851
36	86477.0261
37	82961.481
38	82892.4693
39	82074.5329
40	81434.0994
41	80148.7468
42	80310.3856
43	78927.6386
44	78217.1626
45	78978.6001
46	77567.8042
47	76908.185
48	79277.7177
49	78529.6207
50	76601.007
51	77463.8098
52	79023.0196
53	77536.2706
54	78121.9952
55	79139.8398
56	79676.8901
57	80656.6365
58	82360.8572
59	82359.5
60	83422.4027
61	83797.8906
62	85212.3951
63	84207.03
64	84062.035
65	84070.0069
66	84376.6556
67	82368.5288
68	81011.8628
69	82344.5369
70	79707.5874
71	77146.6052
72	77988.1189
73	77751.7974
74	75893.3994
75	77877.7562
76	75831.2887
77	76487.7672
78	75209.682
79	74593.1721
80	74383.2196
81	76491.051
82	74408.0106
83	72972.7751
84	75830.1854
85	73990.2825
86	75656.0621
87	76639.564
88	76069.6145
89	76074.7947
90	76312.7005
91	77362.338
92	77411.2889
93	78210.6285
94	77881.9458
95	77907.6759
96	78018.8525
97	77096.855
98	77632.533
99	77510.1865
100	75569.0848
101	76011.9536
102	75688.5357
103	74275.0297
104	74267.9489
105	75399.2359
106	74240.3409
107	74690.2186
108	74858.0013
109	72701.0247
110	74629.5893
111	73502.3461
112	72161.8951
113	74104.5213
114	73902.748
115	73198.6492
116	71631.3266
117	73013.855
118	73398.5983
119	74292.1968
120	74265.2068
121	73657.3109
122	73766.9586
123	74899.722
124	75332.333
125	73537.3948
126	75878.761
127	74398.7533
128	74272.0247
129	74879.8659
130	74264.1453
131	73942.0423
132	74407.8449
133	72388.3309
134	73140.4941
135	74068.8159
136	72511.0594
137	71998.9397
138	72642.972
139	73016.1796
140	72137.7477
141	70366.694
142	71313.39
143	71373.8684
144	71887.567
145	72051.9993
146	70729.8392
147	71505.5726
148	70752.6131
149	70796.7999
150	71158.6519
151	72369.94
152	72596.8872
153	72002.7187
154	71413.3191
155	70950.1515
156	72936.1174
157	71355.1199
158	70553.6286
159	71354.9879
160	71650.3709
161	70759.7952
162	71819.9143
163	71882.3109
164	71218.8665
165	72386.9773
166	70823.1294
167	70227.5773
168	71473.0852
169	71679.1102
170	69425.2928
171	70175.9615
172	70902.866
173	70281.7873
174	70493.5364
175	69867.9878
176	68829.7142
177	70814.0343
178	70042.5963
179	68395.785
180	69946.6673
181	71038.1852
182	68859.7315
183	69689.6126
184	69473.4452
185	68737.9055
186	70096.2081
187	68693.9642
188	69596.7329
189	69596.6845
190	69449.8465
191	68765.6626
192	69126.6075
193	69048.7872
194	69711.2227
195	70525.0181
196	68120.2078
197	68750.3386
198	68944.2081
199	68522.1913
200	34490.2725
