Position	Value
-200	292107.6792
-199	144950.2989
-198	146634.0998
-197	146699.1489
-196	145630.845
-195	147513.5685
-194	146981.9123
-193	146928.5049
-192	146856.7886
-191	145756.8087
-190	147215.7558
-189	146015.8462
-188	148711.5393
-187	148059.8006
-186	147340.9492
-185	147825.2183
-184	149523.1545
-183	148782.3428
-182	146945.3481
-181	149685.5667
-180	148925.9052
-179	145183.9164
-178	147504.9284
-177	150167.0224
-176	146443.1069
-175	146617.6743
-174	149359.5056
-173	147192.4917
-172	149970.6635
-171	148914.508
-170	146423.1502
-169	150491.2959
-168	149767.825
-167	149913.2952
-166	149141.087
-165	151220.8423
-164	149156.8241
-163	151053.9172
-162	152096.5751
-161	149238.0003
-160	149122.9234
-159	152352.5748
-158	151438.1748
-157	150483.7534
-156	154055.6941
-155	151348.4088
-154	150996.2797
-153	152530.4841
-152	153582.0604
-151	150907.0419
-150	152425.8987
-149	151665.6481
-148	149976.8984
-147	151237.7258
-146	149254.3176
-145	152005.0907
-144	151222.0877
-143	150006.2142
-142	152202.3087
-141	148866.5307
-140	152251.4304
-139	152838.9386
-138	151099.3039
-137	152006.716
-136	153000.7788
-135	155264.9716
-134	152483.5978
-133	153447.9836
-132	156689.7835
-131	154399.8443
-130	158900.3827
-129	157728.4869
-128	156758.8513
-127	158186.2129
-126	159227.817
-125	156718.2764
-124	156501.89
-123	157257.8098
-122	155875.6794
-121	154635.2518
-120	157353.5735
-119	154582.8602
-118	155574.741
-117	153983.799
-116	152354.8054
-115	155623.798
-114	155501.4805
-113	156459.4363
-112	153773.169
-111	156404.0579
-110	155356.1716
-109	154883.101
-108	156896.9084
-107	156081.7532
-106	156338.0851
-105	158872.1243
-104	157283.1892
-103	156775.9317
-102	160840.8492
-101	159079.1238
-100	160029.2441
-99	161249.3527
-98	163649.0988
-97	161755.0585
-96	163157.8245
-95	162756.5036
-94	165119.6261
-93	164551.5498
-92	163849.4726
-91	162271.2265
-90	162341.372
-89	162598.8688
-88	161570.4297
-87	160695.605
-86	160345.6124
-85	157137.7096
-84	160589.0933
-83	156507.2579
-82	158017.8653
-81	160278.1823
-80	158896.1233
-79	159119.0086
-78	159288.8422
-77	162673.0983
-76	160839.647
-75	163840.7128
-74	162426.7554
-73	164678.6707
-72	164851.2192
-71	164611.5774
-70	168400.8463
-69	170483.1276
-68	171140.998
-67	172531.4276
-66	175302.2192
-65	176462.0212
-64	175531.0575
-63	178046.4149
-62	177338.2621
-61	176054.2027
-60	176210.3042
-59	172785.0791
-58	174885.6408
-57	170763.7391
-56	168591.7783
-55	168195.4876
-54	168747.1381
-53	168081.6709
-52	169785.1617
-51	168634.6538
-50	165154.6242
-49	167568.5233
-48	169345.1265
-47	167422.7517
-46	167038.9657
-45	167626.6261
-44	166073.405
-43	168379.2313
-42	171764.3294
-41	169589.4371
-40	172714.4891
-39	173133.0272
-38	176552.4159
-37	179464.8033
-36	184712.2585
-35	184424.863
-34	189312.7793
-33	192837.7037
-32	195821.5441
-31	196955.589
-30	199737.0371
-29	190348.5372
-28	182441.7904
-27	175621.9838
-26	175309.9325
-25	175730.7058
-24	178259.0
-23	182566.6141
-22	182120.0371
-21	188709.7993
-20	193604.3755
-19	193641.0828
-18	199980.3812
-17	201810.0187
-16	200629.0727
-15	205079.1112
-14	209466.8036
-13	216891.3497
-12	225603.6022
-11	232680.7961
-10	233907.4215
-9	247248.6285
-8	254439.9011
-7	263554.2877
-6	274175.0386
-5	294153.6725
-4	313260.4749
-3	340435.139
-2	303363.1485
-1	295090.1341
0	1431691.1084
1	295090.1341
2	303363.1485
3	340435.139
4	313260.4749
5	294153.6725
6	274175.0386
7	263554.2877
8	254439.9011
9	247248.6285
10	233907.4215
11	232680.7961
12	225603.6022
13	216891.3497
14	209466.8036
15	205079.1112
16	200629.0727
17	201810.0187
18	199980.3812
19	193641.0828
20	193604.3755
21	188709.7993
22	182120.0371
23	182566.6141
24	178259.0
25	175730.7058
26	175309.9325
27	175621.9838
28	182441.7904
29	190348.5372
30	199737.0371
31	196955.589
32	195821.5441
33	192837.7037
34	189312.7793
35	184424.863
36	184712.2585
37	179464.8033
38	176552.4159
39	173133.0272
40	172714.4891
41	169589.4371
42	171764.3294
43	168379.2313
44	166073.405
45	167626.6261
46	167038.9657
47	167422.7517
48	169345.1265
49	167568.5233
50	165154.6242
51	168634.6538
52	169785.1617
53	168081.6709
54	168747.1381
55	168195.4876
56	168591.7783
57	170763.7391
58	174885.6408
59	172785.0791
60	176210.3042
61	176054.2027
62	177338.2621
63	178046.4149
64	175531.0575
65	176462.0212
66	175302.2192
67	172531.4276
68	171140.998
69	170483.1276
70	168400.8463
71	164611.5774
72	164851.2192
73	164678.6707
74	162426.7554
75	163840.7128
76	160839.647
77	162673.0983
78	159288.8422
79	159119.0086
80	158896.1233
81	160278.1823
82	158017.8653
83	156507.2579
84	160589.0933
85	157137.7096
86	160345.6124
87	160695.605
88	161570.4297
89	162598.8688
90	162341.372
91	162271.2265
92	163849.4726
93	164551.5498
94	165119.6261
95	162756.5036
96	163157.8245
97	161755.0585
98	163649.0988
99	161249.3527
100	160029.2441
101	159079.1238
102	160840.8492
103	156775.9317
104	157283.1892
105	158872.1243
106	156338.0851
107	156081.7532
108	156896.9084
109	154883.101
110	155356.1716
111	156404.0579
112	153773.169
113	156459.4363
114	155501.4805
115	155623.798
116	152354.8054
117	153983.799
118	155574.741
119	154582.8602
120	157353.5735
121	154635.2518
122	155875.6794
123	157257.8098
124	156501.89
125	156718.2764
126	159227.817
127	158186.2129
128	156758.8513
129	157728.4869
130	158900.3827
131	154399.8443
132	156689.7835
133	153447.9836
134	152483.5978
135	155264.9716
136	153000.7788
137	152006.716
138	151099.3039
139	152838.9386
140	152251.4304
141	148866.5307
142	152202.3087
143	150006.2142
144	151222.0877
145	152005.0907
146	149254.3176
147	151237.7258
148	149976.8984
149	151665.6481
150	152425.8987
151	150907.0419
152	153582.0604
153	152530.4841
154	150996.2797
155	151348.4088
156	154055.6941
157	150483.7534
158	151438.1748
159	152352.5748
160	149122.9234
161	149238.0003
162	152096.5751
163	151053.9172
164	149156.8241
165	151220.8423
166	149141.087
167	149913.2952
168	149767.825
169	150491.2959
170	146423.1502
171	148914.508
172	149970.6635
173	147192.4917
174	149359.5056
175	146617.6743
176	146443.1069
177	150167.0224
178	147504.9284
179	145183.9164
180	148925.9052
181	149685.5667
182	146945.3481
183	148782.3428
184	149523.1545
185	147825.2183
186	147340.9492
187	148059.8006
188	148711.5393
189	146015.8462
190	147215.7558
191	145756.8087
192	146856.7886
193	146928.5049
194	146981.9123
195	147513.5685
196	145630.845
197	146699.1489
198	146634.0998
199	144950.2989
200	292107.6792
