Position	Value
-200	40694.8269
-199	79834.8079
-198	80168.8836
-197	81473.8827
-196	80993.8986
-195	82045.0341
-194	81709.4061
-193	81739.1604
-192	82268.6706
-191	82225.1547
-190	82948.4447
-189	82673.3934
-188	83495.0282
-187	81663.301
-186	81867.5137
-185	82018.2717
-184	82892.3383
-183	83524.4413
-182	81788.0071
-181	83461.223
-180	82830.0635
-179	82317.3308
-178	81665.3747
-177	83364.6041
-176	82175.7364
-175	82175.5019
-174	83131.4063
-173	81789.6995
-172	83039.9952
-171	82920.0767
-170	82105.1688
-169	83726.2186
-168	83363.559
-167	83271.7771
-166	83209.0028
-165	83657.5313
-164	83795.1471
-163	84286.3627
-162	84286.6598
-161	82840.5187
-160	84569.8072
-159	85085.7407
-158	83746.685
-157	83514.4786
-156	86299.9034
-155	84839.7876
-154	83973.2933
-153	84499.9611
-152	85034.2166
-151	85162.6299
-150	83930.4586
-149	83955.4349
-148	84090.2954
-147	84171.3901
-146	83409.3004
-145	84960.7986
-144	85786.1241
-143	84880.9931
-142	83833.9151
-141	83584.4238
-140	83840.5605
-139	84345.0434
-138	84242.8532
-137	84537.128
-136	85236.9759
-135	86140.7472
-134	84268.799
-133	84366.2256
-132	86468.6429
-131	86653.1065
-130	87874.6727
-129	87370.8555
-128	87212.682
-127	87169.1456
-126	88396.1466
-125	87159.6176
-124	86894.6059
-123	87484.5737
-122	86234.145
-121	86383.1079
-120	86669.1252
-119	86697.3668
-118	86935.7837
-117	85956.7668
-116	85076.2611
-115	85491.7833
-114	86168.5687
-113	86490.0483
-112	85417.5213
-111	86437.2749
-110	87109.1871
-109	85763.1371
-108	88159.9884
-107	87935.0165
-106	87175.9752
-105	86886.0013
-104	86472.1995
-103	86812.3426
-102	87795.5138
-101	88514.6645
-100	89518.3597
-99	89800.2345
-98	89468.5447
-97	89329.2765
-96	90521.9274
-95	90935.4599
-94	90298.1494
-93	91317.1499
-92	90222.7678
-91	90582.7206
-90	89901.4277
-89	90254.5444
-88	90147.5767
-87	89430.1791
-86	90246.6599
-85	87437.5111
-84	88509.7773
-83	86638.6343
-82	87766.7618
-81	88324.0492
-80	87802.4588
-79	88879.6117
-78	88599.2288
-77	88881.5719
-76	89309.5918
-75	89485.5382
-74	89311.8153
-73	89167.1023
-72	90932.4965
-71	90926.8529
-70	92714.1687
-69	93859.0972
-68	93167.0913
-67	93603.7151
-66	95846.1653
-65	96470.3193
-64	96605.7597
-63	98060.0289
-62	98661.7413
-61	96892.0342
-60	96819.451
-59	96617.7469
-58	97243.3967
-57	95033.7627
-56	94079.5118
-55	94034.3599
-54	93469.5588
-53	93381.549
-52	94189.1071
-51	94279.2923
-50	92891.512
-49	92539.6649
-48	94687.7716
-47	92192.9508
-46	91836.8421
-45	93146.3773
-44	91656.4604
-43	93280.997
-42	94383.574
-41	94128.0865
-40	94788.3858
-39	94745.8006
-38	96066.1459
-37	97038.9586
-36	98720.5209
-35	99940.1092
-34	102196.1777
-33	103823.4255
-32	105234.523
-31	105671.465
-30	106968.2721
-29	101260.7411
-28	96856.368
-27	93997.5918
-26	95565.4049
-25	94653.9491
-24	95998.3817
-23	97201.9219
-22	99559.9336
-21	104353.1848
-20	105937.3812
-19	109097.8902
-18	110158.3211
-17	111612.7016
-16	111800.5724
-15	113570.2718
-14	116519.0886
-13	120819.3578
-12	126271.3264
-11	130196.2123
-10	131352.8153
-9	138508.9425
-8	141808.8992
-7	153259.78
-6	155150.8055
-5	170782.4265
-4	186189.6084
-3	205066.3375
-2	205687.8212
-1	218121.1735
0	820834.1161
1	218121.1735
2	205687.8212
3	205066.3375
4	186189.6084
5	170782.4265
6	155150.8055
7	153259.78
8	141808.8992
9	138508.9425
10	131352.8153
11	130196.2123
12	126271.3264
13	120819.3578
14	116519.0886
15	113570.2718
16	111800.5724
17	111612.7016
18	110158.3211
19	109097.8902
20	105937.3812
21	104353.1848
22	99559.9336
23	97201.9219
24	95998.3817
25	94653.9491
26	95565.4049
27	93997.5918
28	96856.368
29	101260.7411
30	106968.2721
31	105671.465
32	105234.523
33	103823.4255
34	102196.1777
35	99940.1092
36	98720.5209
37	97038.9586
38	96066.1459
39	94745.8006
40	94788.3858
41	94128.0865
42	94383.574
43	93280.997
44	91656.4604
45	93146.3773
46	91836.8421
47	92192.9508
48	94687.7716
49	92539.6649
50	92891.512
51	94279.2923
52	94189.1071
53	93381.549
54	93469.5588
55	94034.3599
56	94079.5118
57	95033.7627
58	97243.3967
59	96617.7469
60	96819.451
61	96892.0342
62	98661.7413
63	98060.0289
64	96605.7597
65	96470.3193
66	95846.1653
67	93603.7151
68	93167.0913
69	93859.0972
70	92714.1687
71	90926.8529
72	90932.4965
73	89167.1023
74	89311.8153
75	89485.5382
76	89309.5918
77	88881.5719
78	88599.2288
79	88879.6117
80	87802.4588
81	88324.0492
82	87766.7618
83	86638.6343
84	88509.7773
85	87437.5111
86	90246.6599
87	89430.1791
88	90147.5767
89	90254.5444
90	89901.4277
91	90582.7206
92	90222.7678
93	91317.1499
94	90298.1494
95	90935.4599
96	90521.9274
97	89329.2765
98	89468.5447
99	89800.2345
100	89518.3597
101	88514.6645
102	87795.5138
103	86812.3426
104	86472.1995
105	86886.0013
106	87175.9752
107	87935.0165
108	88159.9884
109	85763.1371
110	87109.1871
111	86437.2749
112	85417.5213
113	86490.0483
114	86168.5687
115	85491.7833
116	85076.2611
117	85956.7668
118	86935.7837
119	86697.3668
120	86669.1252
121	86383.1079
122	86234.145
123	87484.5737
124	86894.6059
125	87159.6176
126	88396.1466
127	87169.1455
128	87212.682
129	87370.8555
130	87874.6727
131	86653.1065
132	86468.6429
133	84366.2256
134	84268.799
135	86140.7472
136	85236.9759
137	84537.128
138	84242.8532
139	84345.0434
140	83840.5605
141	83584.4238
142	83833.9151
143	84880.9931
144	85786.1241
145	84960.7986
146	83409.3004
147	84171.3901
148	84090.2954
149	83955.4349
150	83930.4586
151	85162.6299
152	85034.2166
153	84499.9611
154	83973.2933
155	84839.7876
156	86299.9034
157	83514.4786
158	83746.685
159	85085.7407
160	84569.8072
161	82840.5187
162	84286.6598
163	84286.3627
164	83795.1471
165	83657.5313
166	83209.0028
167	83271.7771
168	83363.559
169	83726.2186
170	82105.1688
171	82920.0767
172	83039.9952
173	81789.6995
174	83131.4063
175	82175.5019
176	82175.7364
177	83364.6041
178	81665.3747
179	82317.3308
180	82830.0635
181	83461.223
182	81788.0071
183	83524.4413
184	82892.3383
185	82018.2717
186	81867.5137
187	81663.301
188	83495.0282
189	82673.3934
190	82948.4447
191	82225.1547
192	82268.6706
193	81739.1604
194	81709.4061
195	82045.0341
196	80993.8986
197	81473.8827
198	80168.8836
199	79834.8079
200	40694.8269
