Position	Value
-200	2531.03
-199	2472.61
-198	2513.68
-197	2476.79
-196	2390.48
-195	2600.55
-194	2380.88
-193	2337.58
-192	2471.32
-191	2374.59
-190	2408.42
-189	2553.59
-188	2564.86
-187	2813.67
-186	2475.5
-185	2639.8
-184	2501.9
-183	2606.28
-182	2424.68
-181	2397.97
-180	2560.17
-179	2390.54
-178	2358.46
-177	2496.62
-176	2362.48
-175	2289.11
-174	2277.51
-173	2317.81
-172	2242.29
-171	2396.93
-170	2307.64
-169	2485.78
-168	2249.28
-167	2306.59
-166	2543.32
-165	2527.65
-164	2581.69
-163	2585.76
-162	2365.22
-161	2503.69
-160	2466.15
-159	2605
-158	2526.14
-157	2733.52
-156	2778.35
-155	2654.7
-154	2656.1
-153	2693.96
-152	2798.62
-151	2728.83
-150	2602.94
-149	2677.5
-148	2604.66
-147	2513.09
-146	2484.26
-145	2679.14
-144	2445.35
-143	2540.8
-142	2401.76
-141	2698.77
-140	2463.33
-139	2527.49
-138	2449.12
-137	2537.58
-136	2545.52
-135	2528.72
-134	2471.31
-133	2474.38
-132	2584.63
-131	2482
-130	2538.62
-129	2663.13
-128	2435.3
-127	2493.84
-126	2828.51
-125	2684.47
-124	2705.72
-123	2668.68
-122	2749.21
-121	2741.64
-120	2698.35
-119	2717.33
-118	2751.21
-117	2508.61
-116	2581.82
-115	2568.71
-114	2623.73
-113	2470.59
-112	2407.05
-111	2795.04
-110	2510.69
-109	2462.85
-108	2478.94
-107	2668.03
-106	2435.11
-105	2435.17
-104	2618.26
-103	2500.69
-102	2891.92
-101	2572.8
-100	2657.47
-99	2861.03
-98	2617.25
-97	2801.09
-96	2726.5
-95	2738.36
-94	2974.37
-93	2871.29
-92	2890
-91	2872.47
-90	2691.27
-89	2976.43
-88	2805.31
-87	2793.08
-86	2834.74
-85	2450.56
-84	2707.93
-83	2343.95
-82	2345.6
-81	2465.4
-80	2534.64
-79	2597.37
-78	2408.08
-77	2641.08
-76	2609.39
-75	2652.72
-74	2457.17
-73	2506.09
-72	2680.2
-71	2463.65
-70	2581.56
-69	2831.41
-68	2672.6
-67	2800.51
-66	2971.96
-65	3050.19
-64	3033.01
-63	3252.28
-62	2974.27
-61	3311.4
-60	3131.3
-59	3118.89
-58	3315.16
-57	3249.27
-56	3026.22
-55	3426.41
-54	2979.36
-53	2934.83
-52	2843.37
-51	2631.4
-50	2894.16
-49	2656.58
-48	2472.53
-47	2721
-46	2643.41
-45	2659.14
-44	2805.24
-43	2698.6
-42	2719.59
-41	2751.62
-40	2612.6
-39	3067.44
-38	2933.14
-37	3050.53
-36	3141.73
-35	3266.59
-34	3337.94
-33	3416.59
-32	3438.69
-31	3540.98
-30	3752.52
-29	3267.33
-28	3933.96
-27	3930.74
-26	3204
-25	3028.5
-24	2996.43
-23	2903.14
-22	3126.43
-21	2924.84
-20	3188.95
-19	3068.23
-18	3183.66
-17	3140.76
-16	3419.94
-15	3550.78
-14	3577.73
-13	3627.95
-12	4344.86
-11	4561.28
-10	5099.91
-9	5525.16
-8	6081.27
-7	6602.2
-6	7743.75
-5	8897.12
-4	9465.92
-3	10849.6
-2	11274.2
-1	10208.8
0	117314
1	10208.8
2	11274.2
3	10849.6
4	9465.92
5	8897.12
6	7743.75
7	6602.2
8	6081.27
9	5525.16
10	5099.91
11	4561.28
12	4344.86
13	3627.95
14	3577.73
15	3550.78
16	3419.94
17	3140.76
18	3183.66
19	3068.23
20	3188.95
21	2924.84
22	3126.43
23	2903.14
24	2996.43
25	3028.5
26	3204
27	3930.74
28	3933.96
29	3267.33
30	3752.52
31	3540.98
32	3438.69
33	3416.59
34	3337.94
35	3266.59
36	3141.73
37	3050.53
38	2933.14
39	3067.44
40	2612.6
41	2751.62
42	2719.59
43	2698.6
44	2805.24
45	2659.14
46	2643.41
47	2721
48	2472.53
49	2656.58
50	2894.16
51	2631.4
52	2843.37
53	2934.83
54	2979.36
55	3426.41
56	3026.22
57	3249.27
58	3315.16
59	3118.89
60	3131.3
61	3311.4
62	2974.27
63	3252.28
64	3033.01
65	3050.19
66	2971.96
67	2800.51
68	2672.6
69	2831.41
70	2581.56
71	2463.65
72	2680.2
73	2506.09
74	2457.17
75	2652.72
76	2609.39
77	2641.08
78	2408.08
79	2597.37
80	2534.64
81	2465.4
82	2345.6
83	2343.95
84	2707.93
85	2450.56
86	2834.74
87	2793.08
88	2805.31
89	2976.43
90	2691.27
91	2872.47
92	2890
93	2871.29
94	2974.37
95	2738.36
96	2726.5
97	2801.09
98	2617.25
99	2861.03
100	2657.47
101	2572.8
102	2891.92
103	2500.69
104	2618.26
105	2435.17
106	2435.11
107	2668.03
108	2478.94
109	2462.85
110	2510.69
111	2795.04
112	2407.05
113	2470.59
114	2623.73
115	2568.71
116	2581.82
117	2508.61
118	2751.21
119	2717.33
120	2698.35
121	2741.64
122	2749.21
123	2668.68
124	2705.72
125	2684.47
126	2828.51
127	2493.84
128	2435.3
129	2663.13
130	2538.62
131	2482
132	2584.63
133	2474.38
134	2471.31
135	2528.72
136	2545.52
137	2537.58
138	2449.12
139	2527.49
140	2463.33
141	2698.77
142	2401.76
143	2540.8
144	2445.35
145	2679.14
146	2484.26
147	2513.09
148	2604.66
149	2677.5
150	2602.94
151	2728.83
152	2798.62
153	2693.96
154	2656.1
155	2654.7
156	2778.35
157	2733.52
158	2526.14
159	2605
160	2466.15
161	2503.69
162	2365.22
163	2585.76
164	2581.69
165	2527.65
166	2543.32
167	2306.59
168	2249.28
169	2485.78
170	2307.64
171	2396.93
172	2242.29
173	2317.81
174	2277.51
175	2289.11
176	2362.48
177	2496.62
178	2358.46
179	2390.54
180	2560.17
181	2397.97
182	2424.68
183	2606.28
184	2501.9
185	2639.8
186	2475.5
187	2813.67
188	2564.86
189	2553.59
190	2408.42
191	2374.59
192	2471.32
193	2337.58
194	2380.88
195	2600.55
196	2390.48
197	2476.79
198	2513.68
199	2472.61
200	2531.03
