Position	Value
-200	0.0
-199	0.0
-198	0.0
-197	0.0003
-196	0.0006
-195	0.0001
-194	0.0002
-193	0.0
-192	0.0
-191	0.0
-190	0.0452
-189	0.0
-188	0.0
-187	0.0001
-186	0.0006
-185	0.0001
-184	0.0
-183	0.0
-182	0.0
-181	0.0001
-180	0.0056
-179	0.0121
-178	0.0562
-177	0.0
-176	0.0009
-175	0.0
-174	0.0
-173	0.0001
-172	0.0
-171	0.0561
-170	0.0
-169	0.0
-168	0.0
-167	0.0
-166	0.0023
-165	0.0001
-164	0.0048
-163	0.1128
-162	0.0
-161	0.0
-160	0.0
-159	0.0
-158	0.0
-157	0.0
-156	0.0044
-155	0.0
-154	0.0894
-153	0.0
-152	0.0001
-151	0.0
-150	0.0
-149	0.0
-148	0.0
-147	0.0
-146	0.0
-145	0.0
-144	0.1111
-143	0.0
-142	0.0
-141	0.0002
-140	0.0
-139	0.2503
-138	0.0
-137	0.0013
-136	0.0
-135	0.0
-134	0.0001
-133	0.0
-132	0.0
-131	0.0
-130	0.0
-129	0.0
-128	0.0
-127	0.0
-126	0.02
-125	0.0001
-124	0.0008
-123	0.0001
-122	0.0
-121	0.0
-120	0.0
-119	0.0
-118	0.0
-117	0.0
-116	0.0837
-115	0.0
-114	0.0
-113	0.0
-112	0.0
-111	0.0048
-110	0.0022
-109	0.0016
-108	0.0048
-107	0.0
-106	0.0
-105	1.0
-104	0.0
-103	0.0
-102	1.0
-101	0.0
-100	0.0
-99	0.0
-98	0.0015
-97	0.0
-96	7.0
-95	0.0
-94	0.0
-93	0.0
-92	0.0
-91	0.0
-90	1.25
-89	0.0
-88	0.0009
-87	0.0
-86	0.0
-85	0.0001
-84	0.0
-83	0.0
-82	0.0003
-81	0.0001
-80	0.0
-79	1.0
-78	0.0001
-77	0.0
-76	0.0
-75	0.0
-74	0.0
-73	0.0
-72	0.0001
-71	0.0
-70	0.0
-69	0.0
-68	0.0
-67	0.0
-66	0.0
-65	0.0
-64	0.0
-63	0.0
-62	0.0009
-61	0.0
-60	0.0
-59	0.0
-58	0.0
-57	0.0016
-56	0.005
-55	0.0072
-54	0.0016
-53	0.0048
-52	0.0007
-51	0.0001
-50	0.0
-49	0.0
-48	0.0
-47	0.0004
-46	0.0
-45	0.0
-44	0.0017
-43	0.0
-42	0.0
-41	0.0
-40	0.0
-39	0.0
-38	0.0
-37	1.0
-36	0.0
-35	0.0001
-34	0.0001
-33	0.0
-32	0.0
-31	0.0
-30	0.1
-29	0.0001
-28	0.0
-27	0.0002
-26	0.0063
-25	0.0
-24	0.0
-23	0.0
-22	0.0026
-21	0.0
-20	0.0
-19	0.0556
-18	0.0
-17	0.0
-16	0.0
-15	0.0
-14	0.2
-13	0.1
-12	0.9
-11	0.55
-10	0.4
-9	0.4003
-8	0.2053
-7	1.8278
-6	1.1036
-5	0.6444
-4	0.6694
-3	3.825
-2	7.7444
-1	40.4231
0	1220.273
1	40.4231
2	7.7444
3	3.825
4	0.6694
5	0.6444
6	1.1036
7	1.8278
8	0.2053
9	0.4003
10	0.4
11	0.55
12	0.9
13	0.1
14	0.2
15	0.0
16	0.0
17	0.0
18	0.0
19	0.0556
20	0.0
21	0.0
22	0.0026
23	0.0
24	0.0
25	0.0
26	0.0063
27	0.0002
28	0.0
29	0.0001
30	0.1
31	0.0
32	0.0
33	0.0
34	0.0001
35	0.0001
36	0.0
37	1.0
38	0.0
39	0.0
40	0.0
41	0.0
42	0.0
43	0.0
44	0.0017
45	0.0
46	0.0
47	0.0004
48	0.0
49	0.0
50	0.0
51	0.0001
52	0.0007
53	0.0048
54	0.0016
55	0.0072
56	0.005
57	0.0016
58	0.0
59	0.0
60	0.0
61	0.0
62	0.0009
63	0.0
64	0.0
65	0.0
66	0.0
67	0.0
68	0.0
69	0.0
70	0.0
71	0.0
72	0.0001
73	0.0
74	0.0
75	0.0
76	0.0
77	0.0
78	0.0001
79	1.0
80	0.0
81	0.0001
82	0.0003
83	0.0
84	0.0
85	0.0001
86	0.0
87	0.0
88	0.0009
89	0.0
90	1.25
91	0.0
92	0.0
93	0.0
94	0.0
95	0.0
96	7.0
97	0.0
98	0.0015
99	0.0
100	0.0
101	0.0
102	1.0
103	0.0
104	0.0
105	1.0
106	0.0
107	0.0
108	0.0048
109	0.0016
110	0.0022
111	0.0048
112	0.0
113	0.0
114	0.0
115	0.0
116	0.0837
117	0.0
118	0.0
119	0.0
120	0.0
121	0.0
122	0.0
123	0.0001
124	0.0008
125	0.0001
126	0.02
127	0.0
128	0.0
129	0.0
130	0.0
131	0.0
132	0.0
133	0.0
134	0.0001
135	0.0
136	0.0
137	0.0013
138	0.0
139	0.2503
140	0.0
141	0.0002
142	0.0
143	0.0
144	0.1111
145	0.0
146	0.0
147	0.0
148	0.0
149	0.0
150	0.0
151	0.0
152	0.0001
153	0.0
154	0.0894
155	0.0
156	0.0044
157	0.0
158	0.0
159	0.0
160	0.0
161	0.0
162	0.0
163	0.1128
164	0.0048
165	0.0001
166	0.0023
167	0.0
168	0.0
169	0.0
170	0.0
171	0.0561
172	0.0
173	0.0001
174	0.0
175	0.0
176	0.0009
177	0.0
178	0.0562
179	0.0121
180	0.0056
181	0.0001
182	0.0
183	0.0
184	0.0
185	0.0001
186	0.0006
187	0.0001
188	0.0
189	0.0
190	0.0452
191	0.0
192	0.0
193	0.0
194	0.0002
195	0.0001
196	0.0006
197	0.0003
198	0.0
199	0.0
200	0.0
