Position	Value
-200	108.4098
-199	242.6263
-198	231.31
-197	175.3175
-196	225.5665
-195	207.5325
-194	204.0969
-193	209.9068
-192	194.9802
-191	206.6371
-190	206.6971
-189	220.5338
-188	225.3491
-187	214.3192
-186	209.6699
-185	247.8802
-184	217.4729
-183	231.4726
-182	227.328
-181	242.3308
-180	211.5966
-179	219.2499
-178	210.1245
-177	225.1247
-176	214.9595
-175	241.3525
-174	214.8114
-173	224.9183
-172	211.5567
-171	211.7965
-170	186.2697
-169	199.6263
-168	205.9585
-167	248.4634
-166	204.9762
-165	239.8238
-164	219.6577
-163	202.5756
-162	213.4496
-161	222.1899
-160	210.2373
-159	229.7311
-158	236.3453
-157	234.8692
-156	219.97
-155	230.5305
-154	227.9491
-153	225.0111
-152	239.9229
-151	195.4078
-150	227.8901
-149	234.4202
-148	207.3486
-147	232.4697
-146	198.9701
-145	202.1644
-144	218.4024
-143	185.5651
-142	189.443
-141	197.703
-140	227.8046
-139	210.7922
-138	212.3689
-137	250.8723
-136	210.6128
-135	244.7445
-134	205.2198
-133	278.0267
-132	262.3024
-131	228.2734
-130	247.2679
-129	220.7058
-128	283.4114
-127	245.4821
-126	260.8172
-125	235.3247
-124	239.1158
-123	268.477
-122	277.731
-121	249.805
-120	301.0401
-119	272.486
-118	232.3714
-117	258.0498
-116	250.4071
-115	203.6948
-114	223.2225
-113	211.2775
-112	216.1887
-111	199.2546
-110	236.4361
-109	211.6584
-108	214.5892
-107	221.4699
-106	219.939
-105	200.6454
-104	228.6036
-103	223.6513
-102	252.9792
-101	194.7547
-100	242.1849
-99	256.5783
-98	265.0503
-97	218.2167
-96	237.5746
-95	275.234
-94	294.9592
-93	284.3119
-92	276.5096
-91	280.071
-90	265.5429
-89	289.0116
-88	249.5051
-87	209.9304
-86	216.1449
-85	219.9121
-84	237.429
-83	181.4372
-82	181.1358
-81	207.0717
-80	231.8276
-79	210.4654
-78	244.1467
-77	181.0905
-76	216.2516
-75	196.3256
-74	199.3588
-73	214.7856
-72	233.947
-71	229.5122
-70	233.797
-69	279.0983
-68	275.0041
-67	251.1934
-66	316.5089
-65	303.12
-64	346.2556
-63	294.8962
-62	321.8856
-61	350.3767
-60	310.9662
-59	341.3294
-58	315.4417
-57	314.665
-56	268.7964
-55	261.0294
-54	226.9791
-53	247.5464
-52	231.8265
-51	247.2639
-50	227.5559
-49	254.6225
-48	231.4933
-47	195.9272
-46	215.8876
-45	218.28
-44	184.8329
-43	274.0509
-42	257.5944
-41	246.237
-40	208.8317
-39	285.3468
-38	248.391
-37	261.5848
-36	277.7495
-35	288.9626
-34	290.1459
-33	377.0891
-32	374.7385
-31	346.318
-30	445.1941
-29	389.9565
-28	453.7949
-27	332.8647
-26	282.8486
-25	288.4749
-24	269.6139
-23	241.3754
-22	208.4711
-21	270.7646
-20	259.9081
-19	266.3804
-18	305.7198
-17	291.2593
-16	298.3963
-15	364.8641
-14	328.0948
-13	331.5967
-12	393.6697
-11	433.0566
-10	461.7573
-9	455.1173
-8	468.0281
-7	543.3861
-6	604.828
-5	709.3998
-4	837.5418
-3	933.239
-2	953.6569
-1	690.0729
0	43667.9622
1	690.0729
2	953.6569
3	933.239
4	837.5418
5	709.3998
6	604.828
7	543.3861
8	468.0281
9	455.1173
10	461.7573
11	433.0566
12	393.6697
13	331.5967
14	328.0948
15	364.8641
16	298.3963
17	291.2593
18	305.7198
19	266.3804
20	259.9081
21	270.7646
22	208.4711
23	241.3754
24	269.6139
25	288.4749
26	282.8486
27	332.8647
28	453.7949
29	389.9565
30	445.1941
31	346.318
32	374.7385
33	377.0891
34	290.1459
35	288.9626
36	277.7495
37	261.5848
38	248.391
39	285.3468
40	208.8317
41	246.237
42	257.5944
43	274.0509
44	184.8329
45	218.28
46	215.8876
47	195.9272
48	231.4933
49	254.6225
50	227.5559
51	247.2639
52	231.8265
53	247.5464
54	226.9791
55	261.0294
56	268.7964
57	314.665
58	315.4417
59	341.3294
60	310.9662
61	350.3767
62	321.8856
63	294.8962
64	346.2556
65	303.12
66	316.5089
67	251.1934
68	275.0041
69	279.0983
70	233.797
71	229.5122
72	233.947
73	214.7856
74	199.3588
75	196.3256
76	216.2516
77	181.0905
78	244.1467
79	210.4654
80	231.8276
81	207.0717
82	181.1358
83	181.4372
84	237.429
85	219.9121
86	216.1449
87	209.9304
88	249.5051
89	289.0116
90	265.5429
91	280.071
92	276.5096
93	284.3119
94	294.9592
95	275.234
96	237.5746
97	218.2167
98	265.0503
99	256.5783
100	242.1849
101	194.7547
102	252.9792
103	223.6513
104	228.6036
105	200.6454
106	219.939
107	221.4699
108	214.5892
109	211.6584
110	236.4361
111	199.2546
112	216.1887
113	211.2775
114	223.2225
115	203.6948
116	250.4071
117	258.0498
118	232.3714
119	272.486
120	301.0401
121	249.805
122	277.731
123	268.477
124	239.1158
125	235.3247
126	260.8172
127	245.4821
128	283.4114
129	220.7058
130	247.2679
131	228.2734
132	262.3024
133	278.0267
134	205.2198
135	244.7445
136	210.6128
137	250.8723
138	212.3689
139	210.7922
140	227.8046
141	197.703
142	189.443
143	185.5651
144	218.4024
145	202.1644
146	198.9701
147	232.4697
148	207.3486
149	234.4202
150	227.8901
151	195.4078
152	239.9229
153	225.0111
154	227.9491
155	230.5305
156	219.97
157	234.8692
158	236.3453
159	229.7311
160	210.2373
161	222.1899
162	213.4496
163	202.5756
164	219.6577
165	239.8238
166	204.9762
167	248.4634
168	205.9585
169	199.6263
170	186.2697
171	211.7965
172	211.5567
173	224.9183
174	214.8114
175	241.3525
176	214.9595
177	225.1247
178	210.1245
179	219.2499
180	211.5966
181	242.3308
182	227.328
183	231.4726
184	217.4729
185	247.8802
186	209.6699
187	214.3192
188	225.3491
189	220.5338
190	206.6971
191	206.6371
192	194.9802
193	209.9068
194	204.0969
195	207.5325
196	225.5665
197	175.3175
198	231.31
199	242.6263
200	108.4098
