Position	Value
-200	447045.4387
-199	224597.7162
-198	225231.5608
-197	224499.9892
-196	224112.954
-195	226154.8429
-194	228087.9055
-193	227391.546
-192	226874.3065
-191	226744.785
-190	227866.0002
-189	227951.4773
-188	228625.3138
-187	228024.592
-186	227040.6742
-185	227157.5669
-184	230542.4281
-183	229189.2935
-182	227632.5546
-181	229777.8158
-180	227359.4914
-179	226782.7464
-178	227448.1714
-177	230386.7278
-176	228209.7672
-175	227215.0135
-174	230698.0621
-173	230552.6895
-172	229823.1026
-171	230947.0002
-170	228153.4481
-169	230463.4748
-168	230762.7395
-167	230456.5469
-166	229532.412
-165	230773.0209
-164	231500.5701
-163	232596.3186
-162	231749.9561
-161	229391.277
-160	231010.4988
-159	232507.4025
-158	230089.2857
-157	229029.7309
-156	232129.0652
-155	229582.2224
-154	229167.9094
-153	230259.5352
-152	230892.5314
-151	231178.3089
-150	230287.9988
-149	230395.2525
-148	229844.1825
-147	232405.706
-146	230015.5211
-145	232931.7404
-144	232637.2111
-143	231226.5053
-142	230881.3712
-141	231918.3819
-140	233794.0699
-139	233431.0714
-138	234700.6249
-137	233993.5066
-136	235974.8817
-135	237959.1157
-134	235565.2486
-133	234955.2242
-132	238027.0761
-131	237615.5203
-130	241021.6383
-129	239761.7539
-128	237237.1234
-127	238524.6627
-126	239431.4476
-125	237449.5812
-124	235825.7199
-123	236068.5848
-122	234948.4308
-121	235016.8341
-120	237119.9163
-119	234945.7269
-118	236420.4181
-117	237721.9747
-116	234326.3862
-115	236151.4466
-114	237385.3737
-113	237454.7295
-112	235818.2211
-111	237521.1432
-110	237608.4766
-109	238885.3118
-108	241186.5486
-107	239291.0694
-106	239100.4065
-105	240801.6624
-104	239900.5676
-103	240354.8936
-102	243180.1135
-101	242757.6246
-100	242434.0199
-99	245473.0757
-98	245242.7704
-97	244410.0828
-96	246622.9039
-95	244140.8983
-94	245847.9803
-93	245099.8553
-92	243890.3111
-91	243216.447
-90	243545.8564
-89	242760.1649
-88	243812.5203
-87	243546.4276
-86	241974.1073
-85	239851.4869
-84	242410.3219
-83	238336.4816
-82	240661.5648
-81	242298.3168
-80	242213.7922
-79	242603.4719
-78	243553.5591
-77	243372.0576
-76	244014.2829
-75	245935.2154
-74	244031.4339
-73	245735.5574
-72	248119.5985
-71	247819.9441
-70	252003.9554
-69	253614.4201
-68	253525.8316
-67	255583.256
-66	260053.2497
-65	260795.4033
-64	258219.6464
-63	260823.0794
-62	260950.5274
-61	259711.4565
-60	258710.7457
-59	257884.0667
-58	257877.7831
-57	255998.1774
-56	253550.7948
-55	254401.5945
-54	253720.6567
-53	254135.3141
-52	255075.6388
-51	256040.5995
-50	252777.9176
-49	252625.2981
-48	256378.9231
-47	252933.7095
-46	252106.4549
-45	253335.8684
-44	251152.1853
-43	252880.3787
-42	257069.3858
-41	253910.9769
-40	256532.9725
-39	257577.6217
-38	259444.653
-37	261807.9976
-36	267413.2042
-35	268352.7855
-34	271331.5453
-33	276048.8708
-32	279394.4465
-31	280327.6307
-30	282491.9824
-29	270126.7314
-28	259031.9149
-27	252624.9716
-26	254503.064
-25	255583.3216
-24	260091.2661
-23	264700.5196
-22	273653.2644
-21	283630.849
-20	289185.0808
-19	294561.0832
-18	299722.281
-17	306089.2033
-16	305510.6632
-15	312046.1144
-14	315703.757
-13	327103.142
-12	339995.7257
-11	346650.9619
-10	351239.0387
-9	365990.9247
-8	373846.0193
-7	388611.7155
-6	401140.9915
-5	429504.2633
-4	465364.8967
-3	514544.6613
-2	502220.6132
-1	539148.3789
0	1811766.5252
1	539148.3789
2	502220.6132
3	514544.6613
4	465364.8967
5	429504.2633
6	401140.9915
7	388611.7155
8	373846.0193
9	365990.9247
10	351239.0387
11	346650.9619
12	339995.7257
13	327103.142
14	315703.757
15	312046.1144
16	305510.6632
17	306089.2033
18	299722.281
19	294561.0832
20	289185.0808
21	283630.849
22	273653.2644
23	264700.5196
24	260091.2661
25	255583.3216
26	254503.064
27	252624.9716
28	259031.9149
29	270126.7314
30	282491.9824
31	280327.6307
32	279394.4465
33	276048.8708
34	271331.5453
35	268352.7855
36	267413.2042
37	261807.9976
38	259444.653
39	257577.6217
40	256532.9725
41	253910.9769
42	257069.3858
43	252880.3787
44	251152.1853
45	253335.8684
46	252106.4549
47	252933.7095
48	256378.9231
49	252625.2981
50	252777.9176
51	256040.5995
52	255075.6388
53	254135.3141
54	253720.6567
55	254401.5945
56	253550.7948
57	255998.1774
58	257877.7831
59	257884.0667
60	258710.7457
61	259711.4565
62	260950.5274
63	260823.0794
64	258219.6464
65	260795.4033
66	260053.2497
67	255583.256
68	253525.8316
69	253614.4201
70	252003.9554
71	247819.9441
72	248119.5985
73	245735.5574
74	244031.4339
75	245935.2154
76	244014.2829
77	243372.0576
78	243553.5591
79	242603.4719
80	242213.7922
81	242298.3168
82	240661.5648
83	238336.4816
84	242410.3219
85	239851.4869
86	241974.1073
87	243546.4276
88	243812.5203
89	242760.1649
90	243545.8564
91	243216.447
92	243890.3111
93	245099.8553
94	245847.9803
95	244140.8983
96	246622.9039
97	244410.0828
98	245242.7704
99	245473.0757
100	242434.0199
101	242757.6246
102	243180.1135
103	240354.8936
104	239900.5676
105	240801.6624
106	239100.4065
107	239291.0694
108	241186.5486
109	238885.3118
110	237608.4766
111	237521.1432
112	235818.2211
113	237454.7295
114	237385.3737
115	236151.4466
116	234326.3862
117	237721.9747
118	236420.4181
119	234945.7269
120	237119.9163
121	235016.8341
122	234948.4308
123	236068.5848
124	235825.7199
125	237449.5812
126	239431.4476
127	238524.6627
128	237237.1234
129	239761.7539
130	241021.6383
131	237615.5203
132	238027.0761
133	234955.2242
134	235565.2486
135	237959.1157
136	235974.8817
137	233993.5066
138	234700.6249
139	233431.0714
140	233794.0699
141	231918.3819
142	230881.3712
143	231226.5053
144	232637.2111
145	232931.7404
146	230015.5211
147	232405.706
148	229844.1825
149	230395.2525
150	230287.9988
151	231178.3089
152	230892.5314
153	230259.5352
154	229167.9094
155	229582.2224
156	232129.0652
157	229029.7309
158	230089.2857
159	232507.4025
160	231010.4988
161	229391.277
162	231749.9561
163	232596.3186
164	231500.5701
165	230773.0209
166	229532.412
167	230456.5469
168	230762.7395
169	230463.4748
170	228153.4481
171	230947.0002
172	229823.1026
173	230552.6895
174	230698.0621
175	227215.0135
176	228209.7672
177	230386.7278
178	227448.1714
179	226782.7464
180	227359.4914
181	229777.8158
182	227632.5546
183	229189.2935
184	230542.4281
185	227157.5669
186	227040.6742
187	228024.592
188	228625.3138
189	227951.4773
190	227866.0002
191	226744.785
192	226874.3065
193	227391.546
194	228087.9055
195	226154.8429
196	224112.954
197	224499.9892
198	225231.5608
199	224597.7162
200	447045.4387
