Position	Value
-200	7581.1437
-199	15445.7981
-198	14996.9241
-197	15378.0456
-196	15742.3427
-195	15733.1572
-194	15476.1148
-193	15385.3326
-192	15797.5453
-191	15914.6488
-190	16063.6539
-189	16539.2792
-188	16544.5052
-187	16747.7388
-186	16091.3182
-185	15923.3096
-184	16345.8216
-183	16242.8003
-182	15575.226
-181	15846.6392
-180	15726.7571
-179	15241.4793
-178	15718.1487
-177	15408.6473
-176	15672.7812
-175	15228.3829
-174	15489.8019
-173	15086.0448
-172	15249.712
-171	15423.5975
-170	15047.705
-169	15607.0183
-168	15448.1735
-167	15850.4681
-166	15757.183
-165	16146.3293
-164	16054.9923
-163	16769.2021
-162	16568.2142
-161	16435.5516
-160	16052.7359
-159	16047.8835
-158	15941.7281
-157	15985.3737
-156	16658.0813
-155	16765.0321
-154	16719.0652
-153	16400.453
-152	16359.3951
-151	16329.8641
-150	15960.2557
-149	16122.3524
-148	15565.7251
-147	15300.8619
-146	15108.2627
-145	15668.9648
-144	15880.8683
-143	16002.7791
-142	15324.6639
-141	15369.7224
-140	15351.2729
-139	15109.9904
-138	15018.8073
-137	15940.1006
-136	15651.2158
-135	16010.8236
-134	16391.0541
-133	16271.2924
-132	17143.8873
-131	17256.6327
-130	17568.894
-129	17467.2793
-128	17525.8011
-127	17467.1778
-126	18021.2492
-125	17679.6521
-124	17374.3584
-123	17930.477
-122	18088.3147
-121	17899.4068
-120	17715.5676
-119	17350.4507
-118	16988.6094
-117	16721.8695
-116	15835.6629
-115	15876.9637
-114	16091.3948
-113	15841.2461
-112	16118.596
-111	16599.7133
-110	16143.6446
-109	16558.8731
-108	16617.8173
-107	16695.6984
-106	16482.8376
-105	16271.4876
-104	16400.962
-103	16469.3108
-102	17035.7755
-101	17199.4019
-100	17799.0948
-99	18191.4566
-98	18134.1425
-97	17831.0386
-96	18366.9664
-95	18034.6033
-94	18500.3357
-93	18843.4043
-92	18652.8889
-91	18448.5061
-90	18398.8341
-89	18308.5408
-88	18294.6671
-87	18025.8939
-86	17605.3847
-85	16924.7528
-84	16791.1136
-83	15995.5623
-82	16638.6303
-81	16597.0956
-80	16438.29
-79	17218.6519
-78	17419.6149
-77	17249.3392
-76	17423.3169
-75	17177.6202
-74	17345.2462
-73	17027.0782
-72	17599.8949
-71	18218.0477
-70	18476.1413
-69	19264.0169
-68	19101.7201
-67	20034.0248
-66	20588.9369
-65	20623.0698
-64	21111.7456
-63	20951.004
-62	21293.0727
-61	20872.3336
-60	21169.5977
-59	21268.4396
-58	21623.8627
-57	20879.1017
-56	19986.8507
-55	20339.4045
-54	19434.5408
-53	18842.4993
-52	18655.406
-51	18267.01
-50	18308.0301
-49	17992.1005
-48	18230.029
-47	17955.627
-46	17857.6545
-45	18119.295
-44	18501.9458
-43	18399.8303
-42	18945.5513
-41	18880.634
-40	18787.2277
-39	19385.7567
-38	19294.7733
-37	20115.8702
-36	21035.4286
-35	21186.0302
-34	22665.6149
-33	22638.1607
-32	23568.2974
-31	22910.477
-30	23563.898
-29	22638.5703
-28	21859.2456
-27	20958.8852
-26	20249.3761
-25	19394.7328
-24	20192.2286
-23	20065.1928
-22	20405.1188
-21	21248.392
-20	21366.7231
-19	21388.967
-18	21711.7226
-17	21902.4516
-16	21928.0753
-15	23978.516
-14	24558.4266
-13	25173.3296
-12	27879.8036
-11	29289.0724
-10	30134.2815
-9	31438.3868
-8	33799.7373
-7	36813.5333
-6	39455.8415
-5	43490.7085
-4	47700.9545
-3	52875.0139
-2	58514.1692
-1	62024.6676
0	301427.7284
1	62024.6676
2	58514.1692
3	52875.0139
4	47700.9545
5	43490.7085
6	39455.8415
7	36813.5333
8	33799.7373
9	31438.3868
10	30134.2815
11	29289.0724
12	27879.8036
13	25173.3296
14	24558.4266
15	23978.516
16	21928.0753
17	21902.4516
18	21711.7226
19	21388.967
20	21366.7231
21	21248.392
22	20405.1188
23	20065.1928
24	20192.2286
25	19394.7328
26	20249.3761
27	20958.8852
28	21859.2456
29	22638.5703
30	23563.898
31	22910.477
32	23568.2974
33	22638.1607
34	22665.6149
35	21186.0302
36	21035.4286
37	20115.8702
38	19294.7733
39	19385.7567
40	18787.2277
41	18880.634
42	18945.5513
43	18399.8303
44	18501.9458
45	18119.295
46	17857.6545
47	17955.627
48	18230.029
49	17992.1005
50	18308.0301
51	18267.01
52	18655.406
53	18842.4993
54	19434.5408
55	20339.4045
56	19986.8507
57	20879.1017
58	21623.8627
59	21268.4396
60	21169.5977
61	20872.3336
62	21293.0727
63	20951.004
64	21111.7456
65	20623.0698
66	20588.9369
67	20034.0248
68	19101.7201
69	19264.0169
70	18476.1413
71	18218.0477
72	17599.8949
73	17027.0782
74	17345.2462
75	17177.6202
76	17423.3169
77	17249.3392
78	17419.6149
79	17218.6519
80	16438.29
81	16597.0956
82	16638.6303
83	15995.5623
84	16791.1136
85	16924.7528
86	17605.3847
87	18025.8939
88	18294.6671
89	18308.5408
90	18398.8341
91	18448.5061
92	18652.8889
93	18843.4043
94	18500.3357
95	18034.6033
96	18366.9664
97	17831.0386
98	18134.1425
99	18191.4566
100	17799.0948
101	17199.4019
102	17035.7755
103	16469.3108
104	16400.962
105	16271.4876
106	16482.8376
107	16695.6984
108	16617.8173
109	16558.8731
110	16143.6446
111	16599.7133
112	16118.596
113	15841.2461
114	16091.3948
115	15876.9637
116	15835.6629
117	16721.8695
118	16988.6094
119	17350.4507
120	17715.5676
121	17899.4068
122	18088.3147
123	17930.477
124	17374.3584
125	17679.6521
126	18021.2492
127	17467.1778
128	17525.8011
129	17467.2793
130	17568.894
131	17256.6327
132	17143.8873
133	16271.2924
134	16391.0541
135	16010.8236
136	15651.2158
137	15940.1006
138	15018.8073
139	15109.9904
140	15351.2729
141	15369.7224
142	15324.6639
143	16002.7791
144	15880.8683
145	15668.9648
146	15108.2627
147	15300.8619
148	15565.7251
149	16122.3524
150	15960.2557
151	16329.8641
152	16359.3951
153	16400.453
154	16719.0652
155	16765.0321
156	16658.0813
157	15985.3737
158	15941.7281
159	16047.8835
160	16052.7359
161	16435.5516
162	16568.2142
163	16769.2021
164	16054.9923
165	16146.3293
166	15757.183
167	15850.4681
168	15448.1735
169	15607.0183
170	15047.705
171	15423.5975
172	15249.712
173	15086.0448
174	15489.8019
175	15228.3829
176	15672.7812
177	15408.6473
178	15718.1487
179	15241.4793
180	15726.7571
181	15846.6392
182	15575.226
183	16242.8003
184	16345.8216
185	15923.3096
186	16091.3182
187	16747.7388
188	16544.5052
189	16539.2792
190	16063.6539
191	15914.6488
192	15797.5453
193	15385.3326
194	15476.1148
195	15733.1572
196	15742.3427
197	15378.0456
198	14996.9241
199	15445.7981
200	7581.1437
