Position	Value
-200	4.91497
-199	2.22831
-198	1.87353
-197	3.36726
-196	1.13377
-195	0.450423
-194	1.60353
-193	1.2073
-192	1.20876
-191	0.759251
-190	1.03568
-189	4.94171
-188	4.16863
-187	4.45436
-186	3.7428
-185	3.23038
-184	8.41521
-183	2.64843
-182	1.3708
-181	5.24326
-180	3.33399
-179	1.14733
-178	5.54286
-177	2.73777
-176	4.536
-175	2.18214
-174	3.71648
-173	0.64931
-172	2.47424
-171	3.25923
-170	0.683883
-169	3.44907
-168	2.40227
-167	1.87479
-166	2.99357
-165	5.99087
-164	2.6674
-163	2.12494
-162	1.83181
-161	5.17556
-160	4.18856
-159	5.59728
-158	1.91964
-157	7.35076
-156	8.1754
-155	2.90353
-154	11.3347
-153	5.46194
-152	5.6786
-151	4.52035
-150	5.61748
-149	4.08794
-148	6.4662
-147	2.20969
-146	1.6943
-145	1.67225
-144	3.13927
-143	2.53078
-142	0.475937
-141	0.948689
-140	3.57217
-139	2.05596
-138	0.408649
-137	2.45377
-136	1.03552
-135	2.8882
-134	2.94218
-133	3.30356
-132	0.273204
-131	0.637899
-130	1.35492
-129	4.27655
-128	2.36508
-127	1.70118
-126	5.27317
-125	0.786019
-124	2.1845
-123	1.98272
-122	3.07127
-121	4.40536
-120	4.47562
-119	5.33362
-118	6.67457
-117	2.98568
-116	4.44636
-115	2.97804
-114	0.43587
-113	1.31307
-112	4.27539
-111	2.97971
-110	3.61715
-109	3.01525
-108	1.74204
-107	1.5776
-106	2.1727
-105	1.35522
-104	2.51319
-103	4.29534
-102	2.22053
-101	2.99924
-100	1.74754
-99	2.74495
-98	1.63272
-97	0.449939
-96	1.40067
-95	5.34313
-94	0.828725
-93	3.94739
-92	2.5368
-91	3.87965
-90	0.772007
-89	4.47778
-88	6.06144
-87	3.01672
-86	4.83515
-85	3.44938
-84	2.83142
-83	1.25599
-82	2.33509
-81	3.89325
-80	4.33029
-79	2.30884
-78	2.36918
-77	2.88675
-76	0.714112
-75	0.515037
-74	1.63193
-73	2.32998
-72	0.545693
-71	3.3597
-70	2.79429
-69	7.00404
-68	0.774795
-67	3.28522
-66	5.46122
-65	1.99203
-64	2.09115
-63	3.17008
-62	4.40831
-61	1.51572
-60	2.5661
-59	0.320517
-58	1.8112
-57	2.0369
-56	3.74511
-55	1.39986
-54	4.14521
-53	2.12798
-52	1.29326
-51	0.698048
-50	2.98655
-49	2.44666
-48	2.6213
-47	1.88349
-46	2.07119
-45	1.57203
-44	2.33629
-43	0.2896
-42	3.48277
-41	3.38325
-40	2.95209
-39	1.10007
-38	2.62018
-37	0.597107
-36	1.26969
-35	3.97198
-34	3.77748
-33	3.13367
-32	3.18785
-31	2.01058
-30	5.69014
-29	4.82013
-28	3.41872
-27	2.71783
-26	2.6539
-25	2.69283
-24	4.57143
-23	3.34779
-22	0.541756
-21	3.39462
-20	3.17493
-19	1.2
-18	2.92482
-17	3.43628
-16	1.83686
-15	4.37659
-14	3.03577
-13	4.61416
-12	2.63585
-11	2.71067
-10	7.59866
-9	5.72844
-8	8.8181
-7	13.1463
-6	9.48899
-5	25.0356
-4	32.4146
-3	72.2049
-2	81.5784
-1	92.0349
0	3137.96
1	92.0349
2	81.5784
3	72.2049
4	32.4146
5	25.0356
6	9.48899
7	13.1463
8	8.8181
9	5.72844
10	7.59866
11	2.71067
12	2.63585
13	4.61416
14	3.03577
15	4.37659
16	1.83686
17	3.43628
18	2.92482
19	1.2
20	3.17493
21	3.39462
22	0.541756
23	3.34779
24	4.57143
25	2.69283
26	2.6539
27	2.71783
28	3.41872
29	4.82013
30	5.69014
31	2.01058
32	3.18785
33	3.13367
34	3.77748
35	3.97198
36	1.26969
37	0.597107
38	2.62018
39	1.10007
40	2.95209
41	3.38325
42	3.48277
43	0.2896
44	2.33629
45	1.57203
46	2.07119
47	1.88349
48	2.6213
49	2.44666
50	2.98655
51	0.698048
52	1.29326
53	2.12798
54	4.14521
55	1.39986
56	3.74511
57	2.0369
58	1.8112
59	0.320517
60	2.5661
61	1.51572
62	4.40831
63	3.17008
64	2.09115
65	1.99203
66	5.46122
67	3.28522
68	0.774795
69	7.00404
70	2.79429
71	3.3597
72	0.545693
73	2.32998
74	1.63193
75	0.515037
76	0.714112
77	2.88675
78	2.36918
79	2.30884
80	4.33029
81	3.89325
82	2.33509
83	1.25599
84	2.83142
85	3.44938
86	4.83515
87	3.01672
88	6.06144
89	4.47778
90	0.772007
91	3.87965
92	2.5368
93	3.94739
94	0.828725
95	5.34313
96	1.40067
97	0.449939
98	1.63272
99	2.74495
100	1.74754
101	2.99924
102	2.22053
103	4.29534
104	2.51319
105	1.35522
106	2.1727
107	1.5776
108	1.74204
109	3.01525
110	3.61715
111	2.97971
112	4.27539
113	1.31307
114	0.43587
115	2.97804
116	4.44636
117	2.98568
118	6.67457
119	5.33362
120	4.47562
121	4.40536
122	3.07127
123	1.98272
124	2.1845
125	0.786019
126	5.27317
127	1.70118
128	2.36508
129	4.27655
130	1.35492
131	0.637899
132	0.273204
133	3.30356
134	2.94218
135	2.8882
136	1.03552
137	2.45377
138	0.408649
139	2.05596
140	3.57217
141	0.948689
142	0.475937
143	2.53078
144	3.13927
145	1.67225
146	1.6943
147	2.20969
148	6.4662
149	4.08794
150	5.61748
151	4.52035
152	5.6786
153	5.46194
154	11.3347
155	2.90353
156	8.1754
157	7.35076
158	1.91964
159	5.59728
160	4.18856
161	5.17556
162	1.83181
163	2.12494
164	2.6674
165	5.99087
166	2.99357
167	1.87479
168	2.40227
169	3.44907
170	0.683883
171	3.25923
172	2.47424
173	0.64931
174	3.71648
175	2.18214
176	4.536
177	2.73777
178	5.54286
179	1.14733
180	3.33399
181	5.24326
182	1.3708
183	2.64843
184	8.41521
185	3.23038
186	3.7428
187	4.45436
188	4.16863
189	4.94171
190	1.03568
191	0.759251
192	1.20876
193	1.2073
194	1.60353
195	0.450423
196	1.13377
197	3.36726
198	1.87353
199	2.22831
200	4.91497
