Position	Value
-200	5788.459
-199	11534.7498
-198	11639.2338
-197	11797.6972
-196	11533.5628
-195	11692.6398
-194	11718.3627
-193	11839.4475
-192	11548.1286
-191	11720.7255
-190	11551.331
-189	11567.2453
-188	11633.1995
-187	11866.5598
-186	11607.1523
-185	11695.3203
-184	11539.4782
-183	11912.9216
-182	11439.8715
-181	11727.3441
-180	11855.1554
-179	11460.4978
-178	11723.798
-177	11730.9646
-176	11517.3187
-175	11525.1354
-174	11766.3931
-173	11695.5462
-172	11714.0771
-171	11870.8273
-170	11555.6938
-169	11874.0267
-168	11605.109
-167	12372.0117
-166	11949.3321
-165	12134.3113
-164	11945.6678
-163	11767.0982
-162	11635.5822
-161	11629.2761
-160	11589.671
-159	12063.757
-158	11709.1246
-157	11913.0301
-156	11981.9023
-155	11711.7255
-154	11578.0193
-153	11933.465
-152	12404.7054
-151	12247.6588
-150	12047.1108
-149	12294.321
-148	11873.6391
-147	11906.4238
-146	12112.4769
-145	12615.8021
-144	12299.9525
-143	11978.9797
-142	12361.7787
-141	12188.8725
-140	12397.8317
-139	12257.5977
-138	12150.5894
-137	12607.1419
-136	12207.3899
-135	12383.4575
-134	12251.4263
-133	12294.6719
-132	12649.795
-131	12375.8297
-130	12426.1054
-129	12852.4957
-128	12791.6881
-127	12317.4906
-126	12628.9527
-125	12361.7108
-124	12242.5825
-123	12629.7978
-122	12426.1851
-121	12090.1696
-120	12306.321
-119	12163.4424
-118	11978.4037
-117	12288.1465
-116	12128.7946
-115	12400.5399
-114	12468.5272
-113	12690.5019
-112	12503.2705
-111	12473.2378
-110	12544.3175
-109	12584.4614
-108	12360.4879
-107	12592.1942
-106	12331.1303
-105	12936.7904
-104	12558.1772
-103	12484.8099
-102	12828.4061
-101	12923.7124
-100	12808.3136
-99	13343.6337
-98	13108.5627
-97	12403.6981
-96	12830.9946
-95	12999.2772
-94	12966.6006
-93	13020.2499
-92	12891.2494
-91	12950.6829
-90	12612.1685
-89	13083.145
-88	12838.6325
-87	13147.465
-86	12628.2441
-85	12139.5404
-84	12757.669
-83	12483.807
-82	12517.5374
-81	12309.6433
-80	12473.6895
-79	12632.7099
-78	12751.7155
-77	12960.6311
-76	13032.002
-75	13076.2152
-74	13125.5583
-73	12817.4856
-72	13362.4023
-71	13072.924
-70	13614.9947
-69	14064.128
-68	13756.752
-67	14029.8271
-66	14288.1667
-65	14048.6361
-64	14191.7623
-63	14480.1002
-62	14525.9105
-61	14419.9012
-60	14376.3272
-59	13894.3295
-58	14296.4791
-57	13766.1653
-56	13429.572
-55	13812.9949
-54	13567.2593
-53	13697.9896
-52	14265.7656
-51	13655.901
-50	13858.964
-49	14041.6241
-48	14162.5548
-47	14277.0758
-46	13820.7922
-45	14181.0611
-44	13576.4024
-43	14366.7439
-42	14378.8908
-41	14107.6774
-40	14059.1026
-39	14312.2567
-38	14301.4776
-37	14673.6312
-36	15158.273
-35	15247.6142
-34	15431.1529
-33	15667.2888
-32	16272.2494
-31	15741.0717
-30	16096.4051
-29	15687.6551
-28	16097.4168
-27	15281.3613
-26	14216.7932
-25	13935.3385
-24	14464.2003
-23	15080.4563
-22	14970.7765
-21	15772.4676
-20	16123.5969
-19	16532.1777
-18	16771.6551
-17	17527.6198
-16	17456.4075
-15	18037.4098
-14	18685.7072
-13	19429.3749
-12	20340.1077
-11	21663.4668
-10	22920.6631
-9	23951.2624
-8	26099.3638
-7	28020.9601
-6	30381.7365
-5	33828.2462
-4	39151.8182
-3	45817.5796
-2	46427.0885
-1	51847.8968
0	260565.2377
1	51847.8968
2	46427.0885
3	45817.5796
4	39151.8182
5	33828.2462
6	30381.7365
7	28020.9601
8	26099.3638
9	23951.2624
10	22920.6631
11	21663.4668
12	20340.1077
13	19429.3749
14	18685.7072
15	18037.4098
16	17456.4075
17	17527.6198
18	16771.6551
19	16532.1777
20	16123.5969
21	15772.4676
22	14970.7765
23	15080.4563
24	14464.2003
25	13935.3385
26	14216.7932
27	15281.3613
28	16097.4168
29	15687.6551
30	16096.4051
31	15741.0717
32	16272.2494
33	15667.2888
34	15431.1529
35	15247.6142
36	15158.273
37	14673.6312
38	14301.4776
39	14312.2567
40	14059.1026
41	14107.6774
42	14378.8908
43	14366.7439
44	13576.4024
45	14181.0611
46	13820.7922
47	14277.0758
48	14162.5548
49	14041.6241
50	13858.964
51	13655.901
52	14265.7656
53	13697.9896
54	13567.2593
55	13812.9949
56	13429.572
57	13766.1653
58	14296.4791
59	13894.3295
60	14376.3272
61	14419.9012
62	14525.9105
63	14480.1002
64	14191.7623
65	14048.6361
66	14288.1667
67	14029.8271
68	13756.752
69	14064.128
70	13614.9947
71	13072.924
72	13362.4023
73	12817.4856
74	13125.5583
75	13076.2152
76	13032.002
77	12960.6311
78	12751.7155
79	12632.7099
80	12473.6895
81	12309.6433
82	12517.5374
83	12483.807
84	12757.669
85	12139.5404
86	12628.2441
87	13147.465
88	12838.6325
89	13083.145
90	12612.1685
91	12950.6829
92	12891.2494
93	13020.2499
94	12966.6006
95	12999.2772
96	12830.9946
97	12403.6981
98	13108.5627
99	13343.6337
100	12808.3136
101	12923.7124
102	12828.4061
103	12484.8099
104	12558.1772
105	12936.7904
106	12331.1303
107	12592.1942
108	12360.4879
109	12584.4614
110	12544.3175
111	12473.2378
112	12503.2705
113	12690.5019
114	12468.5272
115	12400.5399
116	12128.7946
117	12288.1465
118	11978.4037
119	12163.4424
120	12306.321
121	12090.1696
122	12426.1851
123	12629.7978
124	12242.5825
125	12361.7108
126	12628.9527
127	12317.4906
128	12791.6881
129	12852.4957
130	12426.1054
131	12375.8297
132	12649.795
133	12294.6719
134	12251.4263
135	12383.4575
136	12207.3899
137	12607.1419
138	12150.5894
139	12257.5977
140	12397.8317
141	12188.8725
142	12361.7787
143	11978.9797
144	12299.9525
145	12615.8021
146	12112.4769
147	11906.4238
148	11873.6391
149	12294.321
150	12047.1108
151	12247.6588
152	12404.7054
153	11933.465
154	11578.0193
155	11711.7255
156	11981.9023
157	11913.0301
158	11709.1246
159	12063.757
160	11589.671
161	11629.2761
162	11635.5822
163	11767.0982
164	11945.6678
165	12134.3113
166	11949.3321
167	12372.0117
168	11605.109
169	11874.0267
170	11555.6938
171	11870.8273
172	11714.0771
173	11695.5462
174	11766.3931
175	11525.1354
176	11517.3187
177	11730.9646
178	11723.798
179	11460.4978
180	11855.1554
181	11727.3441
182	11439.8715
183	11912.9216
184	11539.4782
185	11695.3203
186	11607.1523
187	11866.5598
188	11633.1995
189	11567.2453
190	11551.331
191	11720.7255
192	11548.1286
193	11839.4475
194	11718.3627
195	11692.6398
196	11533.5628
197	11797.6972
198	11639.2338
199	11534.7498
200	5788.459
