Position	Value
-200	99546.7
-199	99214.5
-198	99901.9
-197	99619.6
-196	99994.3
-195	100895
-194	100225
-193	101011
-192	102057
-191	100043
-190	100715
-189	101822
-188	102583
-187	101783
-186	103932
-185	102285
-184	103121
-183	102084
-182	101912
-181	102140
-180	101490
-179	100302
-178	101293
-177	102649
-176	100521
-175	100354
-174	101050
-173	101434
-172	100847
-171	102496
-170	102063
-169	102589
-168	103508
-167	103284
-166	102695
-165	103907
-164	103337
-163	103651
-162	103276
-161	102958
-160	104190
-159	103654
-158	104318
-157	104501
-156	106025
-155	105546
-154	104664
-153	104647
-152	105789
-151	104782
-150	103891
-149	104026
-148	103001
-147	103760
-146	102235
-145	101892
-144	103106
-143	100865
-142	101222
-141	101631
-140	101323
-139	102966
-138	102801
-137	103212
-136	104067
-135	103318
-134	104098
-133	103991
-132	105935
-131	105024
-130	107512
-129	107345
-128	107044
-127	107329
-126	109373
-125	108915
-124	108711
-123	109594
-122	108715
-121	108803
-120	109515
-119	108082
-118	107706
-117	107339
-116	104963
-115	105720
-114	105361
-113	105914
-112	104277
-111	105811
-110	105064
-109	104296
-108	106397
-107	104670
-106	104183
-105	105740
-104	104642
-103	105355
-102	107531
-101	105893
-100	106388
-99	108596
-98	109593
-97	109184
-96	111555
-95	111031
-94	112089
-93	112742
-92	112579
-91	112171
-90	111375
-89	109488
-88	110144
-87	109017
-86	107629
-85	107354
-84	107378
-83	105287
-82	105496
-81	106351
-80	105241
-79	104850
-78	105722
-77	106009
-76	106887
-75	107695
-74	106997
-73	108145
-72	109411
-71	111189
-70	110712
-69	112501
-68	111164
-67	113668
-66	115893
-65	117177
-64	117174
-63	120808
-62	121644
-61	120216
-60	119707
-59	120458
-58	119956
-57	118299
-56	115462
-55	114663
-54	113560
-53	111424
-52	111067
-51	111793
-50	111476
-49	108723
-48	111202
-47	109588
-46	109383
-45	110187
-44	108659
-43	110263
-42	113162
-41	111443
-40	113397
-39	114750
-38	114219
-37	115429
-36	118338
-35	118771
-34	122609
-33	125002
-32	125097
-31	128009
-30	131509
-29	128333
-28	124667
-27	120486
-26	118423
-25	117898
-24	117835
-23	115903
-22	116810
-21	118070
-20	120605
-19	121814
-18	122133
-17	123424
-16	124163
-15	127524
-14	128841
-13	132082
-12	141268
-11	143830
-10	147394
-9	154965
-8	162152
-7	168909
-6	176261
-5	189916
-4	197808
-3	222835
-2	200379
-1	186157
0	807204
1	186157
2	200379
3	222835
4	197808
5	189916
6	176261
7	168909
8	162152
9	154965
10	147394
11	143830
12	141268
13	132082
14	128841
15	127524
16	124163
17	123424
18	122133
19	121814
20	120605
21	118070
22	116810
23	115903
24	117835
25	117898
26	118423
27	120486
28	124667
29	128333
30	131509
31	128009
32	125097
33	125002
34	122609
35	118771
36	118338
37	115429
38	114219
39	114750
40	113397
41	111443
42	113162
43	110263
44	108659
45	110187
46	109383
47	109588
48	111202
49	108723
50	111476
51	111793
52	111067
53	111424
54	113560
55	114663
56	115462
57	118299
58	119956
59	120458
60	119707
61	120216
62	121644
63	120808
64	117174
65	117177
66	115893
67	113668
68	111164
69	112501
70	110712
71	111189
72	109411
73	108145
74	106997
75	107695
76	106887
77	106009
78	105722
79	104850
80	105241
81	106351
82	105496
83	105287
84	107378
85	107354
86	107629
87	109017
88	110144
89	109488
90	111375
91	112171
92	112579
93	112742
94	112089
95	111031
96	111555
97	109184
98	109593
99	108596
100	106388
101	105893
102	107531
103	105355
104	104642
105	105740
106	104183
107	104670
108	106397
109	104296
110	105064
111	105811
112	104277
113	105914
114	105361
115	105720
116	104963
117	107339
118	107706
119	108082
120	109515
121	108803
122	108715
123	109594
124	108711
125	108915
126	109373
127	107329
128	107044
129	107345
130	107512
131	105024
132	105935
133	103991
134	104098
135	103318
136	104067
137	103212
138	102801
139	102966
140	101323
141	101631
142	101222
143	100865
144	103106
145	101892
146	102235
147	103760
148	103001
149	104026
150	103891
151	104782
152	105789
153	104647
154	104664
155	105546
156	106025
157	104501
158	104318
159	103654
160	104190
161	102958
162	103276
163	103651
164	103337
165	103907
166	102695
167	103284
168	103508
169	102589
170	102063
171	102496
172	100847
173	101434
174	101050
175	100354
176	100521
177	102649
178	101293
179	100302
180	101490
181	102140
182	101912
183	102084
184	103121
185	102285
186	103932
187	101783
188	102583
189	101822
190	100715
191	100043
192	102057
193	101011
194	100225
195	100895
196	99994.3
197	99619.6
198	99901.9
199	99214.5
200	99546.7
