Position	Value
-200	1316.5176
-199	2588.8705
-198	2739.1538
-197	2515.9831
-196	2618.5612
-195	2670.6712
-194	2578.455
-193	2717.0947
-192	2710.9578
-191	2458.9486
-190	2693.2698
-189	2677.7919
-188	2786.4269
-187	2865.996
-186	2748.2526
-185	2808.4415
-184	2705.9592
-183	2830.4774
-182	2566.4241
-181	2641.4847
-180	2774.0119
-179	2664.5938
-178	2788.2186
-177	2792.7267
-176	2803.2382
-175	2666.3334
-174	2589.7444
-173	2637.1034
-172	2588.1125
-171	2579.465
-170	2624.151
-169	2632.8685
-168	2631.0461
-167	2761.1837
-166	2754.9579
-165	2777.6481
-164	2810.7188
-163	2760.3374
-162	2778.3913
-161	2666.8065
-160	2731.9416
-159	2710.356
-158	2732.1913
-157	2854.9785
-156	2809.5612
-155	2865.8769
-154	2998.4401
-153	2871.9562
-152	2999.9363
-151	2877.6506
-150	2847.034
-149	2870.4827
-148	2906.8416
-147	2676.9671
-146	2726.8118
-145	2924.7655
-144	2815.4445
-143	2893.6167
-142	2842.4459
-141	2980.8034
-140	2977.1936
-139	2976.8218
-138	2967.6805
-137	3100.8128
-136	3019.9223
-135	2937.9385
-134	2889.8017
-133	3031.7085
-132	3057.5152
-131	2964.3193
-130	2901.1724
-129	3024.7736
-128	3068.6772
-127	2949.8218
-126	3190.4014
-125	2877.2663
-124	3101.4082
-123	3075.4527
-122	3021.4602
-121	3066.9201
-120	2951.7249
-119	2905.3782
-118	2898.9422
-117	2804.3481
-116	2683.6715
-115	2734.4339
-114	2677.2849
-113	2662.1892
-112	2786.599
-111	2920.9569
-110	2857.405
-109	2893.6415
-108	2878.0217
-107	3181.7705
-106	2979.5092
-105	2863.612
-104	3048.766
-103	2984.5431
-102	3260.405
-101	3047.5427
-100	3169.7229
-99	3286.9936
-98	3191.8047
-97	3215.8013
-96	3105.6155
-95	3221.8502
-94	3190.5856
-93	3277.1886
-92	3303.9027
-91	3199.5156
-90	3032.4525
-89	3184.7859
-88	3088.5139
-87	3024.533
-86	2966.6008
-85	2814.2237
-84	2897.1398
-83	2696.2828
-82	2701.972
-81	2814.5544
-80	2842.3363
-79	2899.8094
-78	2815.1161
-77	2823.4077
-76	3035.6454
-75	3041.8531
-74	3006.7923
-73	3092.3568
-72	3095.7606
-71	3152.9595
-70	3197.1427
-69	3451.51
-68	3376.8287
-67	3399.8572
-66	3543.4975
-65	3732.9528
-64	3726.7746
-63	3884.4156
-62	3713.7192
-61	3765.8138
-60	3682.1461
-59	3733.6414
-58	3806.9522
-57	3535.9698
-56	3305.5121
-55	3381.1278
-54	3119.3102
-53	2923.7311
-52	2914.3702
-51	2858.7322
-50	2956.0279
-49	2812.0657
-48	2840.297
-47	2973.0378
-46	2909.2214
-45	3000.7726
-44	3248.1617
-43	3036.9696
-42	3388.1311
-41	3328.8629
-40	3251.528
-39	3470.8671
-38	3545.0813
-37	3626.9886
-36	3619.5121
-35	3934.682
-34	3991.2764
-33	4235.0017
-32	4313.1315
-31	4439.114
-30	4554.5894
-29	4535.0245
-28	4519.0558
-27	4058.5906
-26	3639.6249
-25	3584.9503
-24	3638.195
-23	3495.7418
-22	3756.5249
-21	3517.5137
-20	3711.7009
-19	3723.0215
-18	3780.7188
-17	4048.9906
-16	4330.0495
-15	4269.782
-14	4538.3788
-13	4915.7679
-12	5459.5116
-11	6156.8173
-10	6659.3462
-9	7629.5914
-8	8139.7532
-7	9447.1755
-6	10689.6157
-5	12659.9334
-4	13786.5301
-3	15733.3817
-2	17446.5511
-1	18674.6961
0	188836.1326
1	18674.6961
2	17446.5511
3	15733.3817
4	13786.5301
5	12659.9334
6	10689.6157
7	9447.1755
8	8139.7532
9	7629.5914
10	6659.3462
11	6156.8173
12	5459.5116
13	4915.7679
14	4538.3788
15	4269.782
16	4330.0495
17	4048.9906
18	3780.7188
19	3723.0215
20	3711.7009
21	3517.5137
22	3756.5249
23	3495.7418
24	3638.195
25	3584.9503
26	3639.6249
27	4058.5906
28	4519.0558
29	4535.0245
30	4554.5894
31	4439.114
32	4313.1315
33	4235.0017
34	3991.2764
35	3934.682
36	3619.5121
37	3626.9886
38	3545.0813
39	3470.8671
40	3251.528
41	3328.8629
42	3388.1311
43	3036.9696
44	3248.1617
45	3000.7726
46	2909.2214
47	2973.0378
48	2840.297
49	2812.0657
50	2956.0279
51	2858.7322
52	2914.3702
53	2923.7311
54	3119.3102
55	3381.1278
56	3305.5121
57	3535.9698
58	3806.9522
59	3733.6414
60	3682.1461
61	3765.8138
62	3713.7192
63	3884.4156
64	3726.7746
65	3732.9528
66	3543.4975
67	3399.8572
68	3376.8287
69	3451.51
70	3197.1427
71	3152.9595
72	3095.7606
73	3092.3568
74	3006.7923
75	3041.8531
76	3035.6454
77	2823.4077
78	2815.1161
79	2899.8094
80	2842.3363
81	2814.5544
82	2701.972
83	2696.2828
84	2897.1398
85	2814.2237
86	2966.6008
87	3024.533
88	3088.5139
89	3184.7859
90	3032.4525
91	3199.5156
92	3303.9027
93	3277.1886
94	3190.5856
95	3221.8502
96	3105.6155
97	3215.8013
98	3191.8047
99	3286.9936
100	3169.7229
101	3047.5427
102	3260.405
103	2984.5431
104	3048.766
105	2863.612
106	2979.5092
107	3181.7705
108	2878.0217
109	2893.6415
110	2857.405
111	2920.9569
112	2786.599
113	2662.1892
114	2677.2849
115	2734.4339
116	2683.6715
117	2804.3481
118	2898.9422
119	2905.3782
120	2951.7249
121	3066.9201
122	3021.4602
123	3075.4527
124	3101.4082
125	2877.2663
126	3190.4014
127	2949.8218
128	3068.6772
129	3024.7736
130	2901.1724
131	2964.3193
132	3057.5152
133	3031.7085
134	2889.8017
135	2937.9385
136	3019.9223
137	3100.8128
138	2967.6805
139	2976.8218
140	2977.1936
141	2980.8034
142	2842.4459
143	2893.6167
144	2815.4445
145	2924.7655
146	2726.8118
147	2676.9671
148	2906.8416
149	2870.4827
150	2847.034
151	2877.6506
152	2999.9363
153	2871.9562
154	2998.4401
155	2865.8769
156	2809.5612
157	2854.9785
158	2732.1913
159	2710.356
160	2731.9416
161	2666.8065
162	2778.3913
163	2760.3374
164	2810.7188
165	2777.6481
166	2754.9579
167	2761.1837
168	2631.0461
169	2632.8685
170	2624.151
171	2579.465
172	2588.1125
173	2637.1034
174	2589.7444
175	2666.3334
176	2803.2382
177	2792.7267
178	2788.2186
179	2664.5938
180	2774.0119
181	2641.4847
182	2566.4241
183	2830.4774
184	2705.9592
185	2808.4415
186	2748.2526
187	2865.996
188	2786.4269
189	2677.7919
190	2693.2698
191	2458.9486
192	2710.9578
193	2717.0947
194	2578.455
195	2670.6712
196	2618.5612
197	2515.9831
198	2739.1538
199	2588.8705
200	1316.5176
