Position	Value
-200	4034.2215
-199	8561.1569
-198	8453.0669
-197	8275.1464
-196	8737.1113
-195	8509.9534
-194	8553.2434
-193	8639.3627
-192	8912.1088
-191	8866.4209
-190	8820.5676
-189	8821.8004
-188	9111.7947
-187	9085.5088
-186	9218.2204
-185	9200.2486
-184	8775.4499
-183	9103.3808
-182	8708.4191
-181	8708.1155
-180	8625.3598
-179	8371.3514
-178	8582.7047
-177	8568.0708
-176	8574.9662
-175	8210.5703
-174	8501.4135
-173	8515.1573
-172	8277.5092
-171	8635.3805
-170	8184.2416
-169	9083.6409
-168	8665.7904
-167	9017.1872
-166	8938.1798
-165	9146.7592
-164	9060.6907
-163	9283.7787
-162	9447.2834
-161	8880.5959
-160	9007.8583
-159	8983.1395
-158	9123.3579
-157	9008.1865
-156	9383.3993
-155	9352.6837
-154	9683.3224
-153	9304.1408
-152	9686.7099
-151	9365.9006
-150	9002.7934
-149	9223.0126
-148	9195.3223
-147	8740.2933
-146	8967.2096
-145	9349.2738
-144	8976.7256
-143	9536.076
-142	8975.3963
-141	8895.1151
-140	9253.3924
-139	8823.1066
-138	8785.7222
-137	9215.9852
-136	8974.7322
-135	9050.6571
-134	9127.1868
-133	8852.1501
-132	9780.5375
-131	9169.0774
-130	9357.3504
-129	9233.4802
-128	9144.525
-127	9310.7425
-126	9752.9665
-125	9327.911
-124	9883.8681
-123	10029.7024
-122	9922.1113
-121	9860.8522
-120	9826.4889
-119	9549.6066
-118	9248.325
-117	9049.1728
-116	8728.8042
-115	8723.7803
-114	9066.9772
-113	8914.5174
-112	8957.2533
-111	9364.4952
-110	9374.9679
-109	9216.9978
-108	9322.5784
-107	9219.8763
-106	9108.8035
-105	9265.3879
-104	8937.8203
-103	9115.9268
-102	9669.8267
-101	9012.7061
-100	9342.7589
-99	10034.9169
-98	9424.2092
-97	9767.8516
-96	9766.1217
-95	9514.9965
-94	9868.6224
-93	10373.5275
-92	10457.7621
-91	10338.7586
-90	10459.3536
-89	10153.0079
-88	10307.9348
-87	9787.316
-86	9996.0916
-85	9650.4853
-84	9117.0564
-83	8938.3505
-82	9119.5488
-81	9322.2892
-80	9304.6485
-79	9353.1603
-78	9624.0536
-77	9597.3306
-76	9646.2914
-75	9814.7397
-74	9541.5007
-73	9556.7628
-72	9583.3761
-71	9682.9138
-70	9701.659
-69	9910.4606
-68	10178.9109
-67	10392.541
-66	10594.5674
-65	10782.6869
-64	11139.979
-63	11168.0881
-62	11674.7682
-61	11600.3542
-60	11035.359
-59	11474.1721
-58	11198.9756
-57	11221.6036
-56	10862.7369
-55	10723.6679
-54	10157.8129
-53	9956.1402
-52	10223.3999
-51	9570.3638
-50	9914.5635
-49	9456.0963
-48	9503.0066
-47	9725.637
-46	9768.531
-45	9716.7713
-44	9965.1522
-43	10167.5614
-42	10331.8888
-41	9917.5164
-40	10105.4334
-39	10221.0037
-38	10088.7518
-37	10341.1989
-36	11253.0461
-35	11410.4219
-34	12047.6534
-33	12394.0014
-32	13013.6966
-31	12963.1889
-30	13289.7146
-29	12733.7231
-28	12177.9732
-27	11798.861
-26	11068.5593
-25	10874.4564
-24	11085.3391
-23	11162.1115
-22	11900.1824
-21	12287.5667
-20	12374.174
-19	12635.2865
-18	12411.5135
-17	12844.3791
-16	12614.4118
-15	12551.7822
-14	13390.9819
-13	13816.3181
-12	14695.0155
-11	15257.6987
-10	15679.8701
-9	16503.3686
-8	17837.5206
-7	19065.808
-6	20669.5944
-5	24016.9562
-4	25986.321
-3	30697.1553
-2	32327.059
-1	28833.4256
0	208475.8262
1	28833.4256
2	32327.059
3	30697.1553
4	25986.321
5	24016.9562
6	20669.5944
7	19065.808
8	17837.5206
9	16503.3686
10	15679.8701
11	15257.6987
12	14695.0155
13	13816.3181
14	13390.9819
15	12551.7822
16	12614.4118
17	12844.3791
18	12411.5135
19	12635.2865
20	12374.174
21	12287.5667
22	11900.1824
23	11162.1115
24	11085.3391
25	10874.4564
26	11068.5593
27	11798.861
28	12177.9732
29	12733.7231
30	13289.7146
31	12963.1889
32	13013.6966
33	12394.0014
34	12047.6534
35	11410.4219
36	11253.0461
37	10341.1989
38	10088.7518
39	10221.0037
40	10105.4334
41	9917.5164
42	10331.8888
43	10167.5614
44	9965.1522
45	9716.7713
46	9768.531
47	9725.637
48	9503.0066
49	9456.0963
50	9914.5635
51	9570.3638
52	10223.3999
53	9956.1402
54	10157.8129
55	10723.6679
56	10862.7369
57	11221.6036
58	11198.9756
59	11474.1721
60	11035.359
61	11600.3542
62	11674.7682
63	11168.0881
64	11139.979
65	10782.6869
66	10594.5674
67	10392.541
68	10178.9109
69	9910.4606
70	9701.659
71	9682.9138
72	9583.3761
73	9556.7628
74	9541.5007
75	9814.7397
76	9646.2914
77	9597.3306
78	9624.0536
79	9353.1603
80	9304.6485
81	9322.2892
82	9119.5488
83	8938.3505
84	9117.0564
85	9650.4853
86	9996.0916
87	9787.316
88	10307.9348
89	10153.0079
90	10459.3536
91	10338.7586
92	10457.7621
93	10373.5275
94	9868.6224
95	9514.9965
96	9766.1217
97	9767.8516
98	9424.2092
99	10034.9169
100	9342.7589
101	9012.7061
102	9669.8267
103	9115.9268
104	8937.8203
105	9265.3879
106	9108.8035
107	9219.8763
108	9322.5784
109	9216.9978
110	9374.9679
111	9364.4952
112	8957.2533
113	8914.5174
114	9066.9772
115	8723.7803
116	8728.8042
117	9049.1728
118	9248.325
119	9549.6066
120	9826.4889
121	9860.8522
122	9922.1113
123	10029.7024
124	9883.8681
125	9327.911
126	9752.9665
127	9310.7425
128	9144.525
129	9233.4802
130	9357.3504
131	9169.0774
132	9780.5375
133	8852.1501
134	9127.1868
135	9050.6571
136	8974.7322
137	9215.9852
138	8785.7222
139	8823.1066
140	9253.3924
141	8895.1151
142	8975.3963
143	9536.076
144	8976.7256
145	9349.2738
146	8967.2096
147	8740.2933
148	9195.3223
149	9223.0126
150	9002.7934
151	9365.9006
152	9686.7099
153	9304.1408
154	9683.3224
155	9352.6837
156	9383.3993
157	9008.1865
158	9123.3579
159	8983.1395
160	9007.8583
161	8880.5959
162	9447.2834
163	9283.7787
164	9060.6907
165	9146.7592
166	8938.1798
167	9017.1872
168	8665.7904
169	9083.6409
170	8184.2416
171	8635.3805
172	8277.5092
173	8515.1573
174	8501.4135
175	8210.5703
176	8574.9662
177	8568.0708
178	8582.7047
179	8371.3514
180	8625.3598
181	8708.1155
182	8708.4191
183	9103.3808
184	8775.4499
185	9200.2486
186	9218.2204
187	9085.5088
188	9111.7947
189	8821.8004
190	8820.5676
191	8866.4209
192	8912.1088
193	8639.3627
194	8553.2434
195	8509.9534
196	8737.1113
197	8275.1464
198	8453.0669
199	8561.1569
200	4034.2215
