Position	Value
-200	250392.1686
-199	123811.0623
-198	125367.2116
-197	125843.3523
-196	124224.2941
-195	125699.0104
-194	125775.3778
-193	125871.1472
-192	125574.5142
-191	125885.2439
-190	126352.7802
-189	125410.9504
-188	126443.3546
-187	126523.6051
-186	127567.2439
-185	126532.9804
-184	127110.7468
-183	127877.9533
-182	126411.4567
-181	128555.0266
-180	127912.4803
-179	125158.2064
-178	126803.9849
-177	128509.4511
-176	125438.6539
-175	126855.5387
-174	127583.5087
-173	126349.5888
-172	128163.2926
-171	127617.9749
-170	125825.9878
-169	130725.1753
-168	128438.0249
-167	128237.7439
-166	127812.2911
-165	129733.6667
-164	128192.9741
-163	129526.6268
-162	130027.8728
-161	128436.7735
-160	128850.7691
-159	131780.1799
-158	129871.3142
-157	128473.1649
-156	131896.3195
-155	130094.417
-154	128903.9129
-153	130501.3007
-152	131517.8467
-151	130498.9122
-150	130756.1331
-149	130787.4987
-148	129676.2321
-147	130741.2638
-146	127791.8413
-145	130535.2404
-144	130321.5367
-143	128583.2099
-142	130701.0597
-141	128223.846
-140	131306.5984
-139	131532.4719
-138	130963.461
-137	130815.9057
-136	131710.68
-135	133317.7138
-134	130891.8924
-133	131147.2938
-132	133658.6005
-131	132723.3077
-130	137176.3641
-129	135866.1993
-128	134867.2821
-127	136470.1301
-126	136209.5132
-125	135206.3889
-124	134823.5614
-123	135564.0246
-122	133939.2087
-121	133500.2723
-120	136412.7057
-119	133049.1473
-118	133633.7901
-117	133579.4325
-116	132173.4619
-115	134160.8819
-114	134109.2052
-113	134874.1372
-112	132952.3936
-111	134671.2824
-110	134893.5029
-109	133804.4602
-108	135671.3353
-107	136211.7667
-106	134795.3287
-105	137579.0848
-104	135236.8808
-103	135312.237
-102	139118.9962
-101	137455.1286
-100	139047.6222
-99	139820.7978
-98	140909.7298
-97	140205.7796
-96	142108.9508
-95	142082.4279
-94	142862.175
-93	142438.2222
-92	141606.9974
-91	142590.7444
-90	141056.3077
-89	140075.9497
-88	139629.1251
-87	138724.5408
-86	139657.1725
-85	136588.1494
-84	139593.9482
-83	135479.3357
-82	136310.9994
-81	138125.0044
-80	137316.9262
-79	137462.7559
-78	137024.9643
-77	141065.0517
-76	139166.5692
-75	141791.018
-74	140190.7816
-73	141539.8058
-72	142402.1308
-71	141616.5582
-70	146606.4879
-69	146245.0417
-68	148022.4893
-67	148841.9057
-66	150782.1417
-65	153773.7635
-64	151983.1292
-63	154953.1768
-62	153339.6205
-61	152596.2833
-60	152782.4579
-59	150128.5565
-58	151496.6217
-57	148531.3634
-56	144791.6564
-55	145976.0041
-54	145043.7669
-53	144654.3769
-52	146539.8965
-51	145715.1433
-50	143516.8346
-49	143274.3697
-48	146708.6122
-47	144287.8842
-46	142837.3088
-45	143922.2785
-44	143711.2813
-43	144809.66
-42	148058.4543
-41	147512.2516
-40	148197.8809
-39	150136.6604
-38	152433.6417
-37	154542.1885
-36	159619.6409
-35	160073.6408
-34	163841.7957
-33	167315.5879
-32	169613.2012
-31	169876.628
-30	174579.4551
-29	165789.2592
-28	158301.1152
-27	152362.3366
-26	151238.7455
-25	151452.9654
-24	152037.4563
-23	156474.7654
-22	155594.6953
-21	162208.1516
-20	165306.3612
-19	166494.3275
-18	172220.685
-17	171518.4941
-16	170948.3137
-15	177112.7164
-14	178190.2845
-13	185268.1127
-12	192530.7352
-11	197045.6952
-10	200858.6348
-9	211784.3202
-8	217738.5249
-7	225827.1297
-6	234587.2556
-5	249376.9377
-4	265948.0257
-3	288158.9494
-2	254008.1801
-1	244555.1059
0	1255340.5276
1	244555.1059
2	254008.1801
3	288158.9494
4	265948.0257
5	249376.9377
6	234587.2556
7	225827.1297
8	217738.5249
9	211784.3202
10	200858.6348
11	197045.6952
12	192530.7352
13	185268.1127
14	178190.2845
15	177112.7164
16	170948.3137
17	171518.4941
18	172220.685
19	166494.3275
20	165306.3612
21	162208.1516
22	155594.6953
23	156474.7654
24	152037.4563
25	151452.9654
26	151238.7455
27	152362.3366
28	158301.1152
29	165789.2592
30	174579.4551
31	169876.628
32	169613.2012
33	167315.5879
34	163841.7957
35	160073.6408
36	159619.6409
37	154542.1885
38	152433.6417
39	150136.6604
40	148197.8809
41	147512.2516
42	148058.4543
43	144809.66
44	143711.2813
45	143922.2785
46	142837.3088
47	144287.8842
48	146708.6122
49	143274.3697
50	143516.8346
51	145715.1433
52	146539.8965
53	144654.3769
54	145043.7669
55	145976.0041
56	144791.6564
57	148531.3634
58	151496.6217
59	150128.5565
60	152782.4579
61	152596.2833
62	153339.6205
63	154953.1768
64	151983.1292
65	153773.7635
66	150782.1417
67	148841.9057
68	148022.4893
69	146245.0417
70	146606.4879
71	141616.5582
72	142402.1308
73	141539.8058
74	140190.7816
75	141791.018
76	139166.5692
77	141065.0517
78	137024.9643
79	137462.7559
80	137316.9262
81	138125.0044
82	136310.9994
83	135479.3357
84	139593.9482
85	136588.1494
86	139657.1725
87	138724.5408
88	139629.1251
89	140075.9497
90	141056.3077
91	142590.7444
92	141606.9974
93	142438.2222
94	142862.175
95	142082.4279
96	142108.9508
97	140205.7796
98	140909.7298
99	139820.7978
100	139047.6222
101	137455.1286
102	139118.9962
103	135312.237
104	135236.8808
105	137579.0848
106	134795.3287
107	136211.7667
108	135671.3353
109	133804.4602
110	134893.5029
111	134671.2824
112	132952.3936
113	134874.1372
114	134109.2052
115	134160.8819
116	132173.4619
117	133579.4325
118	133633.7901
119	133049.1473
120	136412.7057
121	133500.2723
122	133939.2087
123	135564.0246
124	134823.5614
125	135206.3889
126	136209.5132
127	136470.1301
128	134867.2821
129	135866.1993
130	137176.3641
131	132723.3077
132	133658.6005
133	131147.2938
134	130891.8924
135	133317.7138
136	131710.68
137	130815.9057
138	130963.461
139	131532.4719
140	131306.5984
141	128223.846
142	130701.0597
143	128583.2099
144	130321.5367
145	130535.2404
146	127791.8413
147	130741.2638
148	129676.2321
149	130787.4987
150	130756.1331
151	130498.9122
152	131517.8467
153	130501.3007
154	128903.9129
155	130094.417
156	131896.3195
157	128473.1649
158	129871.3142
159	131780.1799
160	128850.7691
161	128436.7735
162	130027.8728
163	129526.6268
164	128192.9741
165	129733.6667
166	127812.2911
167	128237.7439
168	128438.0249
169	130725.1753
170	125825.9878
171	127617.9749
172	128163.2926
173	126349.5888
174	127583.5087
175	126855.5387
176	125438.6539
177	128509.4511
178	126803.9849
179	125158.2064
180	127912.4803
181	128555.0266
182	126411.4567
183	127877.9533
184	127110.7468
185	126532.9804
186	127567.2439
187	126523.6051
188	126443.3546
189	125410.9504
190	126352.7802
191	125885.2439
192	125574.5142
193	125871.1472
194	125775.3778
195	125699.0104
196	124224.2941
197	125843.3523
198	125367.2116
199	123811.0623
200	250392.1686
