Position	Value
-200	1966.8078
-199	4403.6288
-198	4336.1102
-197	4230.2789
-196	4235.4848
-195	4160.1475
-194	4226.2256
-193	4202.4449
-192	4256.6581
-191	4159.7885
-190	4183.3293
-189	4257.2571
-188	4506.0235
-187	4441.6136
-186	4550.7262
-185	4293.8305
-184	4349.8154
-183	4401.0668
-182	4301.4538
-181	4342.3305
-180	4211.2928
-179	4195.5046
-178	4068.2666
-177	4359.5052
-176	4286.9633
-175	4325.4636
-174	4159.047
-173	4370.5762
-172	4066.3585
-171	4186.1374
-170	4031.8581
-169	4530.8643
-168	4184.7904
-167	4396.9344
-166	4179.2634
-165	4501.2007
-164	4478.3182
-163	4564.4687
-162	4419.5358
-161	4324.7635
-160	4451.3109
-159	4301.8273
-158	4335.1872
-157	4403.8561
-156	4550.9774
-155	4507.6129
-154	4633.1943
-153	4554.3044
-152	4691.2673
-151	4441.2143
-150	4460.5636
-149	4376.2905
-148	4447.5776
-147	4227.9595
-146	4277.7822
-145	4324.8502
-144	4573.6641
-143	4739.3375
-142	4564.0018
-141	4536.6815
-140	4594.1914
-139	4407.9266
-138	4494.9075
-137	4570.3449
-136	4321.1584
-135	4664.6751
-134	4571.8587
-133	4479.3494
-132	4896.243
-131	4753.5268
-130	4833.3022
-129	4665.0393
-128	4546.503
-127	4671.8944
-126	4940.1837
-125	4607.0508
-124	4802.4634
-123	4944.9836
-122	4960.1118
-121	4853.646
-120	4988.4976
-119	4683.4002
-118	4594.7514
-117	4588.464
-116	4028.3797
-115	4175.0068
-114	4279.4248
-113	4428.7134
-112	4612.7542
-111	4541.1121
-110	4714.0416
-109	4271.0764
-108	4532.5677
-107	4422.1489
-106	4464.1116
-105	4495.9077
-104	4502.2819
-103	4598.186
-102	4624.758
-101	4657.9327
-100	4714.2109
-99	5156.7558
-98	4911.9069
-97	4888.1648
-96	5037.3169
-95	4929.6188
-94	5027.7122
-93	5317.2527
-92	5099.3814
-91	5136.8843
-90	5416.0966
-89	5208.7318
-88	5361.3923
-87	4973.4086
-86	4859.7605
-85	4946.4311
-84	4731.0202
-83	4324.501
-82	4717.5595
-81	4917.7007
-80	4708.3908
-79	4926.4918
-78	4925.7952
-77	4857.4678
-76	5190.7363
-75	5136.4433
-74	4798.3997
-73	5124.9029
-72	5061.8336
-71	5045.2966
-70	4809.199
-69	5568.1445
-68	5296.1187
-67	5246.7301
-66	5629.2787
-65	5464.6921
-64	5391.4599
-63	5702.2212
-62	5644.0108
-61	5646.4968
-60	5723.927
-59	5696.8259
-58	5744.4182
-57	5608.0377
-56	5384.4697
-55	5565.6984
-54	5457.6951
-53	5235.8329
-52	5322.3311
-51	5177.7717
-50	5317.9059
-49	4863.3828
-48	5133.5101
-47	5174.6857
-46	5198.0384
-45	5474.087
-44	5182.6973
-43	5127.2587
-42	5504.1908
-41	5142.4377
-40	5236.9236
-39	5493.3789
-38	5436.5858
-37	5325.9432
-36	6022.8365
-35	5835.5346
-34	6261.7043
-33	6797.1706
-32	6680.4273
-31	6798.4029
-30	7003.0638
-29	6878.5322
-28	6542.0562
-27	6267.0339
-26	6064.9992
-25	6121.3636
-24	6590.8712
-23	6667.6868
-22	7165.5729
-21	7754.466
-20	7639.0823
-19	8476.0717
-18	8393.1511
-17	8483.1695
-16	8302.9032
-15	9284.225
-14	9671.2209
-13	9762.9083
-12	11409.2104
-11	11332.0281
-10	12173.7873
-9	12962.8774
-8	13298.2714
-7	14771.459
-6	17229.3339
-5	18921.2272
-4	21329.9101
-3	26967.8445
-2	29037.3342
-1	27503.2456
0	186410.9683
1	27503.2456
2	29037.3342
3	26967.8445
4	21329.9101
5	18921.2272
6	17229.3339
7	14771.459
8	13298.2714
9	12962.8774
10	12173.7873
11	11332.0281
12	11409.2104
13	9762.9083
14	9671.2209
15	9284.225
16	8302.9032
17	8483.1695
18	8393.1511
19	8476.0717
20	7639.0823
21	7754.466
22	7165.5729
23	6667.6868
24	6590.8712
25	6121.3636
26	6064.9992
27	6267.0339
28	6542.0562
29	6878.5322
30	7003.0638
31	6798.4029
32	6680.4273
33	6797.1706
34	6261.7043
35	5835.5346
36	6022.8365
37	5325.9432
38	5436.5858
39	5493.3789
40	5236.9236
41	5142.4377
42	5504.1908
43	5127.2587
44	5182.6973
45	5474.087
46	5198.0384
47	5174.6857
48	5133.5101
49	4863.3828
50	5317.9059
51	5177.7717
52	5322.3311
53	5235.8329
54	5457.6951
55	5565.6984
56	5384.4697
57	5608.0377
58	5744.4182
59	5696.8259
60	5723.927
61	5646.4968
62	5644.0108
63	5702.2212
64	5391.4599
65	5464.6921
66	5629.2787
67	5246.7301
68	5296.1187
69	5568.1445
70	4809.199
71	5045.2966
72	5061.8336
73	5124.9029
74	4798.3997
75	5136.4433
76	5190.7363
77	4857.4678
78	4925.7952
79	4926.4918
80	4708.3908
81	4917.7007
82	4717.5595
83	4324.501
84	4731.0202
85	4946.4311
86	4859.7605
87	4973.4086
88	5361.3923
89	5208.7318
90	5416.0966
91	5136.8843
92	5099.3814
93	5317.2527
94	5027.7122
95	4929.6188
96	5037.3169
97	4888.1648
98	4911.9069
99	5156.7558
100	4714.2109
101	4657.9327
102	4624.758
103	4598.186
104	4502.2819
105	4495.9077
106	4464.1116
107	4422.1489
108	4532.5677
109	4271.0764
110	4714.0416
111	4541.1121
112	4612.7542
113	4428.7134
114	4279.4248
115	4175.0068
116	4028.3797
117	4588.464
118	4594.7514
119	4683.4002
120	4988.4976
121	4853.646
122	4960.1118
123	4944.9836
124	4802.4634
125	4607.0508
126	4940.1837
127	4671.8944
128	4546.503
129	4665.0393
130	4833.3022
131	4753.5268
132	4896.243
133	4479.3494
134	4571.8587
135	4664.6751
136	4321.1584
137	4570.3449
138	4494.9075
139	4407.9266
140	4594.1914
141	4536.6815
142	4564.0018
143	4739.3375
144	4573.6641
145	4324.8502
146	4277.7822
147	4227.9595
148	4447.5776
149	4376.2905
150	4460.5636
151	4441.2143
152	4691.2673
153	4554.3044
154	4633.1943
155	4507.6129
156	4550.9774
157	4403.8561
158	4335.1872
159	4301.8273
160	4451.3109
161	4324.7635
162	4419.5358
163	4564.4687
164	4478.3182
165	4501.2007
166	4179.2634
167	4396.9344
168	4184.7904
169	4530.8643
170	4031.8581
171	4186.1374
172	4066.3585
173	4370.5762
174	4159.047
175	4325.4636
176	4286.9633
177	4359.5052
178	4068.2666
179	4195.5046
180	4211.2928
181	4342.3305
182	4301.4538
183	4401.0668
184	4349.8154
185	4293.8305
186	4550.7262
187	4441.6136
188	4506.0235
189	4257.2571
190	4183.3293
191	4159.7885
192	4256.6581
193	4202.4449
194	4226.2256
195	4160.1475
196	4235.4848
197	4230.2789
198	4336.1102
199	4403.6288
200	1966.8078
