Position	Value
-200	5279.1157
-199	10698.2612
-198	10776.3655
-197	10758.3702
-196	11066.4517
-195	11137.4661
-194	11157.776
-193	10985.5554
-192	11279.7827
-191	10918.0061
-190	11116.6687
-189	11438.2238
-188	11242.1618
-187	11284.8228
-186	11200.5781
-185	10731.4081
-184	11287.0441
-183	11127.0014
-182	11140.2524
-181	11143.3147
-180	11179.7557
-179	10746.9819
-178	10792.3044
-177	11096.5525
-176	11022.3525
-175	10787.4966
-174	10944.1329
-173	10629.9608
-172	11189.9615
-171	10787.439
-170	10746.4671
-169	11143.3226
-168	10917.3465
-167	11408.8424
-166	11309.9718
-165	11431.3107
-164	11214.2824
-163	11212.5819
-162	11352.7583
-161	11131.5671
-160	11117.8219
-159	11342.2495
-158	11136.8232
-157	11570.3412
-156	11575.5677
-155	11496.986
-154	11766.9906
-153	12095.5243
-152	12026.8751
-151	11707.9981
-150	11570.8461
-149	11580.1231
-148	11565.198
-147	11611.8099
-146	11545.5295
-145	11636.8783
-144	11976.3608
-143	11579.8955
-142	11520.5728
-141	11842.607
-140	11644.0932
-139	11784.0232
-138	11642.0936
-137	12170.8143
-136	11956.9458
-135	12141.4004
-134	12155.9308
-133	12139.8648
-132	12531.4598
-131	12401.3135
-130	12406.3653
-129	12459.6208
-128	12146.4346
-127	12561.5801
-126	12223.6181
-125	11861.8972
-124	11915.5278
-123	12520.5958
-122	12354.2378
-121	12299.5042
-120	12540.6348
-119	12430.3675
-118	12420.0221
-117	12568.4774
-116	12601.9271
-115	12435.7226
-114	12813.5441
-113	12758.4807
-112	12660.6827
-111	12672.44
-110	12599.906
-109	12684.4012
-108	13164.8416
-107	12849.971
-106	12984.7636
-105	13214.1505
-104	12851.0101
-103	13184.3555
-102	13179.8914
-101	13069.6842
-100	13180.0025
-99	13381.2515
-98	13147.3137
-97	12978.6231
-96	12953.7518
-95	13304.1194
-94	12997.2041
-93	13009.1184
-92	12778.703
-91	12915.493
-90	12833.7922
-89	13157.4981
-88	13300.7835
-87	13323.4198
-86	12936.8145
-85	12904.1124
-84	13518.9726
-83	13195.1538
-82	12902.1769
-81	13620.5503
-80	13616.0491
-79	13548.0321
-78	13945.9892
-77	14062.2631
-76	14292.1892
-75	14861.0222
-74	14836.3138
-73	14807.0564
-72	14949.5424
-71	14974.3537
-70	14879.2604
-69	15402.1986
-68	15338.1937
-67	15426.449
-66	15585.3404
-65	15553.133
-64	15639.1915
-63	16243.4462
-62	15983.0509
-61	16200.2028
-60	16273.1435
-59	16147.2221
-58	16498.5872
-57	16572.031
-56	16325.8434
-55	16376.239
-54	16758.1228
-53	16306.1646
-52	16903.5764
-51	16988.1109
-50	17063.6492
-49	17482.1123
-48	18044.8569
-47	18010.472
-46	17508.4467
-45	18151.0518
-44	17837.8627
-43	17761.8326
-42	18326.1226
-41	18330.8095
-40	18074.4137
-39	18563.8842
-38	18620.1381
-37	18764.5831
-36	19397.7499
-35	19498.3721
-34	20043.7231
-33	20463.3326
-32	20734.6656
-31	20563.8369
-30	21329.6277
-29	21258.2881
-28	21429.1191
-27	22043.9795
-26	21319.6973
-25	21174.5589
-24	22215.3645
-23	22363.8992
-22	23319.8897
-21	24215.1836
-20	24408.7447
-19	25151.8812
-18	27007.0173
-17	27282.3503
-16	27712.4312
-15	29575.2191
-14	29535.4113
-13	30892.731
-12	33719.3384
-11	35852.8364
-10	37140.7464
-9	41402.2051
-8	43198.4227
-7	46655.5672
-6	53814.3916
-5	62510.697
-4	74369.5375
-3	94335.3902
-2	114133.1875
-1	148646.7487
0	508425.3054
1	148646.7487
2	114133.1875
3	94335.3902
4	74369.5375
5	62510.697
6	53814.3916
7	46655.5672
8	43198.4227
9	41402.2051
10	37140.7464
11	35852.8364
12	33719.3384
13	30892.731
14	29535.4113
15	29575.2191
16	27712.4312
17	27282.3503
18	27007.0173
19	25151.8812
20	24408.7447
21	24215.1836
22	23319.8897
23	22363.8992
24	22215.3645
25	21174.5589
26	21319.6973
27	22043.9795
28	21429.1191
29	21258.2881
30	21329.6277
31	20563.8369
32	20734.6656
33	20463.3326
34	20043.7231
35	19498.3721
36	19397.7499
37	18764.5831
38	18620.1381
39	18563.8842
40	18074.4137
41	18330.8095
42	18326.1226
43	17761.8326
44	17837.8627
45	18151.0518
46	17508.4467
47	18010.472
48	18044.8569
49	17482.1123
50	17063.6492
51	16988.1109
52	16903.5764
53	16306.1646
54	16758.1228
55	16376.239
56	16325.8434
57	16572.031
58	16498.5872
59	16147.2221
60	16273.1435
61	16200.2028
62	15983.0509
63	16243.4462
64	15639.1915
65	15553.133
66	15585.3404
67	15426.449
68	15338.1937
69	15402.1986
70	14879.2604
71	14974.3537
72	14949.5424
73	14807.0564
74	14836.3138
75	14861.0222
76	14292.1892
77	14062.2631
78	13945.9892
79	13548.0321
80	13616.0491
81	13620.5503
82	12902.1769
83	13195.1538
84	13518.9726
85	12904.1124
86	12936.8145
87	13323.4198
88	13300.7835
89	13157.4981
90	12833.7922
91	12915.493
92	12778.703
93	13009.1184
94	12997.2041
95	13304.1194
96	12953.7518
97	12978.6231
98	13147.3137
99	13381.2515
100	13180.0025
101	13069.6842
102	13179.8914
103	13184.3555
104	12851.0101
105	13214.1505
106	12984.7636
107	12849.971
108	13164.8416
109	12684.4012
110	12599.906
111	12672.44
112	12660.6827
113	12758.4807
114	12813.5441
115	12435.7226
116	12601.9271
117	12568.4774
118	12420.0221
119	12430.3675
120	12540.6348
121	12299.5042
122	12354.2378
123	12520.5958
124	11915.5278
125	11861.8972
126	12223.6181
127	12561.5801
128	12146.4346
129	12459.6208
130	12406.3653
131	12401.3135
132	12531.4598
133	12139.8648
134	12155.9308
135	12141.4004
136	11956.9458
137	12170.8143
138	11642.0936
139	11784.0232
140	11644.0932
141	11842.607
142	11520.5728
143	11579.8955
144	11976.3608
145	11636.8783
146	11545.5295
147	11611.8099
148	11565.198
149	11580.1231
150	11570.8461
151	11707.9981
152	12026.8751
153	12095.5243
154	11766.9906
155	11496.986
156	11575.5677
157	11570.3412
158	11136.8232
159	11342.2495
160	11117.8219
161	11131.5671
162	11352.7583
163	11212.5819
164	11214.2824
165	11431.3107
166	11309.9718
167	11408.8424
168	10917.3465
169	11143.3226
170	10746.4671
171	10787.439
172	11189.9615
173	10629.9608
174	10944.1329
175	10787.4966
176	11022.3525
177	11096.5525
178	10792.3044
179	10746.9819
180	11179.7557
181	11143.3147
182	11140.2524
183	11127.0014
184	11287.0441
185	10731.4081
186	11200.5781
187	11284.8228
188	11242.1618
189	11438.2238
190	11116.6687
191	10918.0061
192	11279.7827
193	10985.5554
194	11157.776
195	11137.4661
196	11066.4517
197	10758.3702
198	10776.3655
199	10698.2612
200	5279.1157
