Position	Value
-200	2358.2585
-199	5008.5973
-198	4836.5042
-197	4852.7107
-196	5054.4396
-195	5085.1787
-194	4730.1676
-193	4801.4522
-192	4804.7899
-191	4753.1329
-190	4885.9424
-189	4753.7887
-188	4944.0745
-187	4922.5072
-186	5097.7366
-185	4892.382
-184	5095.4614
-183	5040.9952
-182	4863.3057
-181	5013.5762
-180	4882.463
-179	4934.7515
-178	4867.6544
-177	5010.1042
-176	5117.5034
-175	4885.2424
-174	5002.2672
-173	4764.6054
-172	4777.3364
-171	4675.7601
-170	4626.7197
-169	4761.565
-168	4744.5818
-167	4881.0354
-166	4798.1994
-165	5037.1064
-164	4970.1565
-163	4937.351
-162	5024.4905
-161	4810.6502
-160	5054.1618
-159	5086.4726
-158	4887.2407
-157	5081.8732
-156	5134.9072
-155	4936.5231
-154	5063.931
-153	5115.1488
-152	5127.2468
-151	5169.8178
-150	4844.0748
-149	4849.5219
-148	4856.6995
-147	4863.0405
-146	4904.4904
-145	5111.7046
-144	5074.1601
-143	5172.4428
-142	4961.0966
-141	4801.6336
-140	4973.9944
-139	4896.2149
-138	4865.6733
-137	5077.701
-136	5009.0612
-135	5170.8121
-134	5132.2746
-133	5033.7204
-132	5322.3833
-131	5111.3803
-130	5290.959
-129	5316.4856
-128	5174.8899
-127	5280.7081
-126	5321.7782
-125	5309.3775
-124	5553.746
-123	5560.0626
-122	5638.9947
-121	5952.103
-120	5532.5102
-119	5481.0313
-118	5415.7127
-117	5362.2664
-116	4901.9699
-115	4907.9897
-114	5081.6852
-113	5085.0003
-112	5115.3727
-111	5334.6465
-110	5392.555
-109	5171.5885
-108	5290.4165
-107	5150.7229
-106	5191.675
-105	5100.9969
-104	5288.604
-103	5176.4555
-102	5350.2709
-101	5387.747
-100	5476.2354
-99	5824.5665
-98	5719.0996
-97	5572.1526
-96	5540.9855
-95	5386.7238
-94	5765.5696
-93	5624.9543
-92	5550.6565
-91	5818.0288
-90	5931.3768
-89	5922.2638
-88	5858.4135
-87	5796.0891
-86	5652.7674
-85	5602.1474
-84	5480.921
-83	5304.6528
-82	5241.2484
-81	5460.4285
-80	5473.8456
-79	5486.9783
-78	5546.294
-77	5395.6344
-76	5460.3482
-75	5301.2279
-74	5328.9891
-73	5241.6681
-72	5460.972
-71	5683.7706
-70	5668.7521
-69	6022.5788
-68	6006.5257
-67	6202.7026
-66	6411.6297
-65	6562.6314
-64	6694.644
-63	6673.8599
-62	6556.9611
-61	6680.5328
-60	6828.901
-59	6868.8946
-58	6619.7685
-57	6552.7065
-56	6408.9335
-55	6180.4054
-54	6027.2277
-53	5969.7116
-52	5895.9582
-51	5737.8818
-50	5651.9726
-49	5463.2886
-48	5621.0325
-47	5848.1443
-46	5789.063
-45	6004.6948
-44	6143.3868
-43	6210.2167
-42	6382.3882
-41	6060.5803
-40	6187.8742
-39	6534.3641
-38	6404.9969
-37	6457.289
-36	6742.6096
-35	6989.2825
-34	7287.1257
-33	8002.8178
-32	7841.0419
-31	7627.9977
-30	7945.3874
-29	7632.876
-28	7952.9242
-27	7354.4403
-26	6391.9641
-25	6006.4597
-24	6082.2151
-23	5979.1142
-22	6074.9079
-21	6319.8852
-20	6028.1449
-19	6296.4254
-18	6483.8782
-17	6668.9314
-16	7154.5968
-15	7060.6363
-14	7321.9135
-13	7924.7036
-12	9059.8592
-11	9713.9654
-10	10276.9977
-9	10763.6727
-8	11705.6795
-7	13442.2618
-6	14708.6758
-5	17501.9443
-4	20991.3499
-3	25750.2779
-2	31120.5999
-1	36200.2045
0	345191.3257
1	36200.2045
2	31120.5999
3	25750.2779
4	20991.3499
5	17501.9443
6	14708.6758
7	13442.2618
8	11705.6795
9	10763.6727
10	10276.9977
11	9713.9654
12	9059.8592
13	7924.7036
14	7321.9135
15	7060.6363
16	7154.5968
17	6668.9314
18	6483.8782
19	6296.4254
20	6028.1449
21	6319.8852
22	6074.9079
23	5979.1142
24	6082.2151
25	6006.4597
26	6391.9641
27	7354.4403
28	7952.9242
29	7632.876
30	7945.3874
31	7627.9977
32	7841.0419
33	8002.8178
34	7287.1257
35	6989.2825
36	6742.6096
37	6457.289
38	6404.9969
39	6534.3641
40	6187.8742
41	6060.5803
42	6382.3882
43	6210.2167
44	6143.3868
45	6004.6948
46	5789.063
47	5848.1443
48	5621.0325
49	5463.2886
50	5651.9726
51	5737.8818
52	5895.9582
53	5969.7116
54	6027.2277
55	6180.4054
56	6408.9335
57	6552.7065
58	6619.7685
59	6868.8946
60	6828.901
61	6680.5328
62	6556.9611
63	6673.8599
64	6694.644
65	6562.6314
66	6411.6297
67	6202.7026
68	6006.5257
69	6022.5788
70	5668.7521
71	5683.7706
72	5460.972
73	5241.6681
74	5328.9891
75	5301.2279
76	5460.3482
77	5395.6344
78	5546.294
79	5486.9783
80	5473.8456
81	5460.4285
82	5241.2484
83	5304.6528
84	5480.921
85	5602.1474
86	5652.7674
87	5796.0891
88	5858.4135
89	5922.2638
90	5931.3768
91	5818.0288
92	5550.6565
93	5624.9543
94	5765.5696
95	5386.7238
96	5540.9855
97	5572.1526
98	5719.0996
99	5824.5665
100	5476.2354
101	5387.747
102	5350.2709
103	5176.4555
104	5288.604
105	5100.9969
106	5191.675
107	5150.7229
108	5290.4165
109	5171.5885
110	5392.555
111	5334.6465
112	5115.3727
113	5085.0003
114	5081.6852
115	4907.9897
116	4901.9699
117	5362.2664
118	5415.7127
119	5481.0313
120	5532.5102
121	5952.103
122	5638.9947
123	5560.0626
124	5553.746
125	5309.3775
126	5321.7782
127	5280.7081
128	5174.8899
129	5316.4856
130	5290.959
131	5111.3803
132	5322.3833
133	5033.7204
134	5132.2746
135	5170.8121
136	5009.0612
137	5077.701
138	4865.6733
139	4896.2149
140	4973.9944
141	4801.6336
142	4961.0966
143	5172.4428
144	5074.1601
145	5111.7046
146	4904.4904
147	4863.0405
148	4856.6995
149	4849.5219
150	4844.0748
151	5169.8178
152	5127.2468
153	5115.1488
154	5063.931
155	4936.5231
156	5134.9072
157	5081.8732
158	4887.2407
159	5086.4726
160	5054.1618
161	4810.6502
162	5024.4905
163	4937.351
164	4970.1565
165	5037.1064
166	4798.1994
167	4881.0354
168	4744.5818
169	4761.565
170	4626.7197
171	4675.7601
172	4777.3364
173	4764.6054
174	5002.2672
175	4885.2424
176	5117.5034
177	5010.1042
178	4867.6544
179	4934.7515
180	4882.463
181	5013.5762
182	4863.3057
183	5040.9952
184	5095.4614
185	4892.382
186	5097.7366
187	4922.5072
188	4944.0745
189	4753.7887
190	4885.9424
191	4753.1329
192	4804.7899
193	4801.4522
194	4730.1676
195	5085.1787
196	5054.4396
197	4852.7107
198	4836.5042
199	5008.5973
200	2358.2585
