Position	Value
-200	53477.9896
-199	106929.2595
-198	108633.9503
-197	108125.8704
-196	107809.9842
-195	108587.821
-194	108590.9761
-193	108155.5763
-192	108879.0295
-191	107998.2025
-190	108289.3691
-189	108704.7414
-188	108934.9258
-187	109109.7105
-186	109249.9188
-185	108836.6648
-184	109121.8628
-183	109405.8516
-182	108237.841
-181	109563.7795
-180	109413.0715
-179	107194.7489
-178	107968.6292
-177	108874.3026
-176	108239.8601
-175	108100.2635
-174	110239.042
-173	108403.2983
-172	108607.2334
-171	109944.4038
-170	108339.935
-169	109266.1341
-168	109709.0753
-167	108837.3981
-166	109381.0293
-165	110336.741
-164	109339.1609
-163	110052.3689
-162	109790.0493
-161	109533.6535
-160	109947.5843
-159	110558.5068
-158	109751.0359
-157	110023.8698
-156	110566.2706
-155	109694.2504
-154	109426.932
-153	110200.9199
-152	111208.2762
-151	111186.7129
-150	110274.1044
-149	111002.9178
-148	109342.4795
-147	111198.8936
-146	110640.7891
-145	111694.0217
-144	111854.3826
-143	110712.8407
-142	111084.2517
-141	110300.4936
-140	111452.167
-139	111622.0136
-138	111353.8004
-137	111627.7835
-136	111320.6973
-135	112605.0635
-134	112464.4717
-133	111255.8766
-132	113032.116
-131	111762.6616
-130	113796.8799
-129	113746.7701
-128	112865.7785
-127	113150.4422
-126	114792.805
-125	113931.4459
-124	113112.7858
-123	113137.2964
-122	113605.9493
-121	113325.2254
-120	113289.7373
-119	111704.0463
-118	112240.3283
-117	112009.3135
-116	111330.5341
-115	112479.0549
-114	112140.0225
-113	112834.4901
-112	112397.2764
-111	113373.2136
-110	112421.9363
-109	112863.7597
-108	113421.8323
-107	113446.7582
-106	112332.5573
-105	113867.6542
-104	113477.9584
-103	113287.8277
-102	114591.9379
-101	114172.3015
-100	115206.1095
-99	115233.3055
-98	115535.4051
-97	113746.2717
-96	115888.8594
-95	115710.0556
-94	115476.868
-93	116077.5463
-92	115471.9653
-91	115408.0049
-90	114771.702
-89	114874.0283
-88	115581.3858
-87	114719.5461
-86	113960.1755
-85	112743.5652
-84	113918.0717
-83	111780.8317
-82	113101.241
-81	113712.9289
-80	113075.4557
-79	113699.744
-78	113330.164
-77	115091.8264
-76	115473.8948
-75	115784.6837
-74	114955.3733
-73	116236.9875
-72	116471.7159
-71	116634.938
-70	118131.544
-69	118751.4265
-68	118804.5055
-67	119284.4545
-66	121106.95
-65	120615.9511
-64	120843.293
-63	121626.8273
-62	122180.9417
-61	121759.9872
-60	120879.759
-59	121443.2853
-58	121277.5943
-57	118982.4784
-56	119664.1266
-55	119865.734
-54	119569.285
-53	118925.6182
-52	120790.2259
-51	120408.1359
-50	119797.8604
-49	119249.7618
-48	120051.2321
-47	119474.0399
-46	118796.2158
-45	119247.6494
-44	117253.3635
-43	118972.5976
-42	120609.9056
-41	119660.744
-40	120378.9322
-39	119668.7695
-38	120919.8389
-37	121532.1144
-36	124982.2018
-35	124897.3503
-34	125502.3687
-33	126549.1209
-32	127933.8761
-31	126650.4504
-30	125992.3591
-29	123745.3867
-28	125323.5632
-27	123677.5473
-26	119435.9059
-25	117018.7166
-24	120776.4176
-23	122968.9772
-22	125094.1895
-21	129730.0877
-20	132362.1684
-19	135553.1489
-18	137633.807
-17	139670.4168
-16	139995.7425
-15	143314.8589
-14	145597.1475
-13	150944.8418
-12	157109.6806
-11	162275.4545
-10	166423.5933
-9	174450.1248
-8	181362.8516
-7	192884.3895
-6	202537.8408
-5	217913.6602
-4	245278.4203
-3	276716.2091
-2	274808.4931
-1	282673.5151
0	943174.8482
1	282673.5151
2	274808.4931
3	276716.2091
4	245278.4203
5	217913.6602
6	202537.8408
7	192884.3895
8	181362.8516
9	174450.1248
10	166423.5933
11	162275.4545
12	157109.6806
13	150944.8418
14	145597.1475
15	143314.8589
16	139995.7425
17	139670.4168
18	137633.807
19	135553.1489
20	132362.1684
21	129730.0877
22	125094.1895
23	122968.9772
24	120776.4176
25	117018.7166
26	119435.9059
27	123677.5473
28	125323.5632
29	123745.3867
30	125992.3591
31	126650.4504
32	127933.8761
33	126549.1209
34	125502.3687
35	124897.3503
36	124982.2018
37	121532.1144
38	120919.8389
39	119668.7695
40	120378.9322
41	119660.744
42	120609.9056
43	118972.5976
44	117253.3635
45	119247.6494
46	118796.2158
47	119474.0399
48	120051.2321
49	119249.7618
50	119797.8604
51	120408.1359
52	120790.2259
53	118925.6182
54	119569.285
55	119865.734
56	119664.1266
57	118982.4784
58	121277.5943
59	121443.2853
60	120879.759
61	121759.9872
62	122180.9417
63	121626.8273
64	120843.293
65	120615.9511
66	121106.95
67	119284.4545
68	118804.5055
69	118751.4265
70	118131.544
71	116634.938
72	116471.7159
73	116236.9875
74	114955.3733
75	115784.6837
76	115473.8948
77	115091.8264
78	113330.164
79	113699.744
80	113075.4557
81	113712.9289
82	113101.241
83	111780.8317
84	113918.0717
85	112743.5652
86	113960.1755
87	114719.5461
88	115581.3858
89	114874.0283
90	114771.702
91	115408.0049
92	115471.9653
93	116077.5463
94	115476.868
95	115710.0556
96	115888.8594
97	113746.2717
98	115535.4051
99	115233.3055
100	115206.1095
101	114172.3015
102	114591.9379
103	113287.8277
104	113477.9584
105	113867.6542
106	112332.5573
107	113446.7582
108	113421.8323
109	112863.7597
110	112421.9363
111	113373.2136
112	112397.2764
113	112834.4901
114	112140.0225
115	112479.0549
116	111330.5341
117	112009.3135
118	112240.3283
119	111704.0463
120	113289.7373
121	113325.2254
122	113605.9493
123	113137.2964
124	113112.7858
125	113931.4459
126	114792.805
127	113150.4422
128	112865.7785
129	113746.7701
130	113796.8799
131	111762.6616
132	113032.116
133	111255.8766
134	112464.4717
135	112605.0635
136	111320.6973
137	111627.7835
138	111353.8004
139	111622.0136
140	111452.167
141	110300.4936
142	111084.2517
143	110712.8407
144	111854.3826
145	111694.0217
146	110640.7891
147	111198.8936
148	109342.4795
149	111002.9178
150	110274.1044
151	111186.7129
152	111208.2762
153	110200.9199
154	109426.932
155	109694.2504
156	110566.2706
157	110023.8698
158	109751.0359
159	110558.5068
160	109947.5843
161	109533.6535
162	109790.0493
163	110052.3689
164	109339.1609
165	110336.741
166	109381.0293
167	108837.3981
168	109709.0753
169	109266.1341
170	108339.935
171	109944.4038
172	108607.2334
173	108403.2983
174	110239.042
175	108100.2635
176	108239.8601
177	108874.3026
178	107968.6292
179	107194.7489
180	109413.0715
181	109563.7795
182	108237.841
183	109405.8516
184	109121.8628
185	108836.6648
186	109249.9188
187	109109.7105
188	108934.9258
189	108704.7414
190	108289.3691
191	107998.2025
192	108879.0295
193	108155.5763
194	108590.9761
195	108587.821
196	107809.9842
197	108125.8704
198	108633.9503
199	106929.2595
200	53477.9896
