Position	Value
-200	28.1744
-199	67.7278
-198	59.7257
-197	65.1637
-196	66.1675
-195	72.1695
-194	58.576
-193	74.6597
-192	46.8006
-191	60.2906
-190	92.4079
-189	95.0903
-188	68.5852
-187	120.0237
-186	109.3196
-185	79.0495
-184	74.2638
-183	97.5989
-182	88.8708
-181	56.8114
-180	78.7974
-179	67.7496
-178	75.0303
-177	74.6308
-176	66.2333
-175	94.1399
-174	46.5569
-173	78.9855
-172	64.8896
-171	65.6914
-170	79.6948
-169	92.0275
-168	74.8953
-167	71.0743
-166	76.5693
-165	64.7782
-164	102.709
-163	83.0701
-162	136.6514
-161	86.611
-160	85.9681
-159	86.7989
-158	85.1102
-157	88.0721
-156	96.3445
-155	100.1515
-154	106.1883
-153	71.8867
-152	100.8964
-151	73.852
-150	147.2845
-149	118.3932
-148	73.8723
-147	71.7864
-146	93.1214
-145	112.7051
-144	79.8229
-143	77.7703
-142	106.4765
-141	107.4149
-140	97.5609
-139	92.6402
-138	89.801
-137	86.6973
-136	87.3603
-135	82.1923
-134	75.0804
-133	71.7009
-132	79.7805
-131	86.6197
-130	78.9309
-129	116.6797
-128	80.885
-127	86.1433
-126	83.2464
-125	136.6652
-124	82.762
-123	79.2343
-122	65.3938
-121	135.7374
-120	113.6362
-119	95.643
-118	54.9858
-117	81.2057
-116	71.6077
-115	59.7555
-114	66.9755
-113	92.7074
-112	83.7839
-111	107.2778
-110	112.7617
-109	69.8633
-108	85.0613
-107	86.6228
-106	99.1003
-105	116.3459
-104	70.1692
-103	89.8109
-102	102.5972
-101	79.0673
-100	64.5346
-99	78.6844
-98	92.5011
-97	77.1225
-96	117.9152
-95	121.0835
-94	131.5158
-93	100.3183
-92	104.8775
-91	69.533
-90	135.1565
-89	75.2951
-88	87.9848
-87	115.8051
-86	86.9239
-85	105.1962
-84	93.337
-83	123.8562
-82	123.0317
-81	144.9645
-80	97.7252
-79	80.5227
-78	87.4037
-77	86.8138
-76	120.0596
-75	56.6777
-74	82.1064
-73	107.8794
-72	102.1601
-71	75.9332
-70	96.7035
-69	109.5315
-68	96.9877
-67	111.4175
-66	110.7337
-65	114.6424
-64	95.453
-63	97.6284
-62	104.864
-61	96.6085
-60	132.2114
-59	138.1758
-58	102.3838
-57	120.7726
-56	71.1471
-55	81.0812
-54	111.715
-53	104.3387
-52	69.1336
-51	62.8057
-50	81.289
-49	90.4693
-48	78.6403
-47	55.6147
-46	60.4671
-45	131.3134
-44	115.1395
-43	95.4543
-42	84.5025
-41	84.8644
-40	110.2932
-39	133.4593
-38	121.9537
-37	134.2301
-36	113.2189
-35	124.1072
-34	141.8438
-33	109.5523
-32	130.741
-31	184.6656
-30	176.1959
-29	106.9914
-28	139.5583
-27	112.7261
-26	73.0633
-25	123.5231
-24	109.591
-23	125.5776
-22	165.1752
-21	143.8617
-20	114.0901
-19	108.8484
-18	101.8908
-17	144.4837
-16	153.3297
-15	191.9177
-14	161.877
-13	211.1143
-12	241.1461
-11	154.787
-10	193.2924
-9	311.109
-8	312.7071
-7	202.7992
-6	317.1994
-5	388.6642
-4	628.009
-3	496.6675
-2	1225.0184
-1	4844.7249
0	71474.6762
1	4844.7249
2	1225.0184
3	496.6675
4	628.009
5	388.6642
6	317.1994
7	202.7992
8	312.7071
9	311.109
10	193.2924
11	154.787
12	241.1461
13	211.1143
14	161.877
15	191.9177
16	153.3297
17	144.4837
18	101.8908
19	108.8484
20	114.0901
21	143.8617
22	165.1752
23	125.5776
24	109.591
25	123.5231
26	73.0633
27	112.7261
28	139.5583
29	106.9914
30	176.1959
31	184.6656
32	130.741
33	109.5523
34	141.8438
35	124.1072
36	113.2189
37	134.2301
38	121.9537
39	133.4593
40	110.2932
41	84.8644
42	84.5025
43	95.4543
44	115.1395
45	131.3134
46	60.4671
47	55.6147
48	78.6403
49	90.4693
50	81.289
51	62.8057
52	69.1336
53	104.3387
54	111.715
55	81.0812
56	71.1471
57	120.7726
58	102.3838
59	138.1758
60	132.2114
61	96.6085
62	104.864
63	97.6284
64	95.453
65	114.6424
66	110.7337
67	111.4175
68	96.9877
69	109.5315
70	96.7035
71	75.9332
72	102.1601
73	107.8794
74	82.1064
75	56.6777
76	120.0596
77	86.8138
78	87.4037
79	80.5227
80	97.7252
81	144.9645
82	123.0317
83	123.8562
84	93.337
85	105.1962
86	86.9239
87	115.8051
88	87.9848
89	75.2951
90	135.1565
91	69.533
92	104.8775
93	100.3183
94	131.5158
95	121.0835
96	117.9152
97	77.1225
98	92.5011
99	78.6844
100	64.5346
101	79.0673
102	102.5972
103	89.8109
104	70.1692
105	116.3459
106	99.1003
107	86.6228
108	85.0613
109	69.8633
110	112.7617
111	107.2778
112	83.7839
113	92.7074
114	66.9755
115	59.7555
116	71.6077
117	81.2057
118	54.9858
119	95.643
120	113.6362
121	135.7374
122	65.3938
123	79.2343
124	82.762
125	136.6652
126	83.2464
127	86.1433
128	80.885
129	116.6797
130	78.9309
131	86.6197
132	79.7805
133	71.7009
134	75.0804
135	82.1923
136	87.3603
137	86.6973
138	89.801
139	92.6402
140	97.5609
141	107.4149
142	106.4765
143	77.7703
144	79.8229
145	112.7051
146	93.1214
147	71.7864
148	73.8723
149	118.3932
150	147.2845
151	73.852
152	100.8964
153	71.8867
154	106.1883
155	100.1515
156	96.3445
157	88.0721
158	85.1102
159	86.7989
160	85.9681
161	86.611
162	136.6514
163	83.0701
164	102.709
165	64.7782
166	76.5693
167	71.0743
168	74.8953
169	92.0275
170	79.6948
171	65.6914
172	64.8896
173	78.9855
174	46.5569
175	94.1399
176	66.2333
177	74.6308
178	75.0303
179	67.7496
180	78.7974
181	56.8114
182	88.8708
183	97.5989
184	74.2638
185	79.0495
186	109.3196
187	120.0237
188	68.5852
189	95.0903
190	92.4079
191	60.2906
192	46.8006
193	74.6597
194	58.576
195	72.1695
196	66.1675
197	65.1637
198	59.7257
199	67.7278
200	28.1744
