Position	Value	
-200	272294.3512	
-199	136875.2697	
-198	137926.0755	
-197	137190.4595	
-196	136635.4636	
-195	138329.6647	
-194	138377.568	
-193	138521.9765	
-192	138652.7343	
-191	137931.7277	
-190	139320.8066	
-189	138577.0037	
-188	139163.8264	
-187	139950.8335	
-186	139285.3511	
-185	139564.9384	
-184	139179.8815	
-183	140953.9428	
-182	137726.142	
-181	140891.6872	
-180	140163.1155	
-179	137358.3592	
-178	138872.4409	
-177	141255.477	
-176	137863.6807	
-175	138854.3145	
-174	140128.0175	
-173	139621.8503	
-172	141101.6134	
-171	139755.474	
-170	138060.7438	
-169	142288.801	
-168	141123.0059	
-167	139744.9515	
-166	141900.0253	
-165	143373.502	
-164	141067.2566	
-163	143747.1892	
-162	144045.1567	
-161	142533.7309	
-160	143246.5387	
-159	144905.2687	
-158	143409.1498	
-157	142478.0614	
-156	145731.3648	
-155	143725.2304	
-154	142892.186	
-153	144177.975	
-152	145052.6556	
-151	143151.9502	
-150	143764.0038	
-149	144159.9056	
-148	141753.2495	
-147	143640.6491	
-146	141939.6921	
-145	143293.0853	
-144	143756.1541	
-143	141872.9389	
-142	144142.5625	
-141	142754.7431	
-140	144651.4494	
-139	145204.9387	
-138	144224.3728	
-137	144604.8418	
-136	144929.2785	
-135	147248.7107	
-134	144358.399	
-133	145024.8239	
-132	146919.4826	
-131	147134.5729	
-130	150601.1945	
-129	148609.2965	
-128	149009.4495	
-127	149050.0151	
-126	150435.8867	
-125	148844.9244	
-124	148296.0628	
-123	148960.256	
-122	147706.4703	
-121	146965.8056	
-120	149196.6161	
-119	146925.3432	
-118	146881.8271	
-117	146935.9063	
-116	144827.7039	
-115	146675.2537	
-114	147276.8797	
-113	148095.6159	
-112	145581.8999	
-111	148513.6341	
-110	147708.7482	
-109	148082.9885	
-108	148655.5338	
-107	147992.4708	
-106	148134.9743	
-105	150582.223	
-104	148605.0388	
-103	148294.0866	
-102	152830.97	
-101	151248.179	
-100	152101.4549	
-99	153192.0187	
-98	154178.6845	
-97	153960.1951	
-96	156623.6749	
-95	155642.7487	
-94	157446.4665	
-93	156814.5217	
-92	155619.58	
-91	155281.3918	
-90	155264.1386	
-89	154532.0326	
-88	154435.6809	
-87	152567.8059	
-86	153091.9149	
-85	149927.1915	
-84	152542.2814	
-83	148461.676	
-82	150923.5164	
-81	151753.4858	
-80	150274.7566	
-79	151607.7662	
-78	150552.6265	
-77	154684.9995	
-76	152402.6435	
-75	156030.8993	
-74	153595.7842	
-73	154991.7156	
-72	155359.0751	
-71	155863.1829	
-70	159219.4765	
-69	160980.0163	
-68	161492.5079	
-67	164099.2106	
-66	166408.128	
-65	167431.9096	
-64	167813.2795	
-63	167986.1596	
-62	169538.8307	
-61	167372.6751	
-60	167531.4896	
-59	163989.4837	
-58	166047.8939	
-57	162261.0995	
-56	159487.4248	
-55	159226.8311	
-54	158435.8745	
-53	159030.1442	
-52	159961.0506	
-51	158709.1878	
-50	156305.1572	
-49	157410.697	
-48	160856.935	
-47	158242.5164	
-46	157048.277	
-45	158704.5493	
-44	156939.6632	
-43	159557.882	
-42	164022.7756	
-41	160985.5273	
-40	162034.909	
-39	163488.4122	
-38	167120.3486	
-37	169739.8575	
-36	175231.0774	
-35	175083.6871	
-34	179535.6382	
-33	182971.5569	
-32	184886.063	
-31	187232.9281	
-30	190276.4612	
-29	183085.3317	
-28	173511.0214	
-27	166573.6812	
-26	165993.873	
-25	165341.6053	
-24	167693.2476	
-23	171146.2937	
-22	170192.7675	
-21	177286.7908	
-20	180904.6972	
-19	181640.2822	
-18	186755.9852	
-17	187058.8279	
-16	185262.5608	
-15	191072.6331	
-14	193657.4905	
-13	201075.74	
-12	208648.2637	
-11	215077.8769	
-10	216785.8811	
-9	227494.5777	
-8	234509.1249	
-7	241895.1812	
-6	251141.7684	
-5	268850.0126	
-4	286342.4879	
-3	309973.409	
-2	270810.0772	
-1	259565.1816	
0	1320963.816	
1	259565.1816	
2	270810.0772	
3	309973.409	
4	286342.4879	
5	268850.0126	
6	251141.7684	
7	241895.1812	
8	234509.1249	
9	227494.5777	
10	216785.8811	
11	215077.8769	
12	208648.2637	
13	201075.74	
14	193657.4905	
15	191072.6331	
16	185262.5608	
17	187058.8279	
18	186755.9852	
19	181640.2822	
20	180904.6972	
21	177286.7908	
22	170192.7675	
23	171146.2937	
24	167693.2476	
25	165341.6053	
26	165993.873	
27	166573.6812	
28	173511.0214	
29	183085.3317	
30	190276.4612	
31	187232.9281	
32	184886.063	
33	182971.5569	
34	179535.6382	
35	175083.6871	
36	175231.0774	
37	169739.8575	
38	167120.3486	
39	163488.4122	
40	162034.909	
41	160985.5273	
42	164022.7756	
43	159557.882	
44	156939.6632	
45	158704.5493	
46	157048.277	
47	158242.5164	
48	160856.935	
49	157410.697	
50	156305.1572	
51	158709.1878	
52	159961.0506	
53	159030.1442	
54	158435.8745	
55	159226.8311	
56	159487.4248	
57	162261.0995	
58	166047.8939	
59	163989.4837	
60	167531.4896	
61	167372.6751	
62	169538.8307	
63	167986.1596	
64	167813.2795	
65	167431.9096	
66	166408.128	
67	164099.2106	
68	161492.5079	
69	160980.0163	
70	159219.4765	
71	155863.1829	
72	155359.0751	
73	154991.7156	
74	153595.7842	
75	156030.8993	
76	152402.6435	
77	154684.9995	
78	150552.6265	
79	151607.7662	
80	150274.7566	
81	151753.4858	
82	150923.5164	
83	148461.676	
84	152542.2814	
85	149927.1915	
86	153091.9149	
87	152567.8059	
88	154435.6809	
89	154532.0326	
90	155264.1386	
91	155281.3918	
92	155619.58	
93	156814.5217	
94	157446.4665	
95	155642.7487	
96	156623.6749	
97	153960.1951	
98	154178.6845	
99	153192.0187	
100	152101.4549	
101	151248.179	
102	152830.97	
103	148294.0866	
104	148605.0388	
105	150582.223	
106	148134.9743	
107	147992.4708	
108	148655.5338	
109	148082.9885	
110	147708.7482	
111	148513.6341	
112	145581.8999	
113	148095.6159	
114	147276.8797	
115	146675.2537	
116	144827.7039	
117	146935.9063	
118	146881.8271	
119	146925.3432	
120	149196.6161	
121	146965.8056	
122	147706.4703	
123	148960.256	
124	148296.0628	
125	148844.9244	
126	150435.8867	
127	149050.0151	
128	149009.4495	
129	148609.2965	
130	150601.1945	
131	147134.5729	
132	146919.4826	
133	145024.8239	
134	144358.399	
135	147248.7107	
136	144929.2785	
137	144604.8418	
138	144224.3728	
139	145204.9387	
140	144651.4494	
141	142754.7431	
142	144142.5625	
143	141872.9389	
144	143756.1541	
145	143293.0853	
146	141939.6921	
147	143640.6491	
148	141753.2495	
149	144159.9056	
150	143764.0038	
151	143151.9502	
152	145052.6556	
153	144177.975	
154	142892.186	
155	143725.2304	
156	145731.3648	
157	142478.0614	
158	143409.1498	
159	144905.2687	
160	143246.5387	
161	142533.7309	
162	144045.1567	
163	143747.1892	
164	141067.2566	
165	143373.502	
166	141900.0253	
167	139744.9515	
168	141123.0059	
169	142288.801	
170	138060.7438	
171	139755.474	
172	141101.6134	
173	139621.8503	
174	140128.0175	
175	138854.3145	
176	137863.6807	
177	141255.477	
178	138872.4409	
179	137358.3592	
180	140163.1155	
181	140891.6872	
182	137726.142	
183	140953.9428	
184	139179.8815	
185	139564.9384	
186	139285.3511	
187	139950.8335	
188	139163.8264	
189	138577.0037	
190	139320.8066	
191	137931.7277	
192	138652.7343	
193	138521.9765	
194	138377.568	
195	138329.6647	
196	136635.4636	
197	137190.4595	
198	137926.0755	
199	136875.2697	
200	136147.1756	272294.3512
