Position	Value
-200	21065.7722
-199	41602.8193
-198	42314.9339
-197	42629.0596
-196	42548.5989
-195	43415.71
-194	43230.8299
-193	42765.2092
-192	42636.4297
-191	42895.7069
-190	43404.5587
-189	42966.6307
-188	43596.3912
-187	43248.7101
-186	42248.9849
-185	42974.9036
-184	43673.7312
-183	43786.6745
-182	43125.6637
-181	44269.9346
-180	43019.3918
-179	43446.5239
-178	43038.3885
-177	43494.5942
-176	44020.1047
-175	43182.4186
-174	44075.7676
-173	43897.6126
-172	43811.156
-171	43420.1762
-170	43212.7294
-169	44572.2708
-168	43798.7311
-167	44157.6619
-166	43837.3959
-165	44054.5541
-164	43388.9487
-163	44019.6368
-162	43710.5649
-161	42875.7172
-160	43754.8563
-159	43933.1198
-158	43776.5979
-157	42909.546
-156	44943.6801
-155	44149.2494
-154	43163.1357
-153	44020.2607
-152	44696.5816
-151	44445.1193
-150	44191.6008
-149	44977.5755
-148	44613.8796
-147	44746.5091
-146	44360.9702
-145	45093.4873
-144	46122.9343
-143	45854.4722
-142	44844.421
-141	45735.6912
-140	45882.188
-139	46638.7794
-138	47588.5072
-137	46440.6413
-136	47534.6318
-135	47605.8358
-134	47405.0332
-133	48272.6954
-132	48538.8476
-131	48454.1611
-130	49498.0086
-129	48658.5261
-128	48240.1264
-127	49021.9661
-126	49497.09
-125	48373.7729
-124	48152.4179
-123	47977.8076
-122	48127.1569
-121	47740.7852
-120	48261.526
-119	48263.9884
-118	48329.6792
-117	48487.7925
-116	47195.7405
-115	48735.9713
-114	48900.4467
-113	48628.1011
-112	48372.1785
-111	49429.0537
-110	48805.5818
-109	48369.2429
-108	50277.8967
-107	50186.6621
-106	49464.3124
-105	50775.8848
-104	49625.746
-103	50133.0163
-102	50544.2754
-101	50914.1031
-100	50939.4863
-99	51877.8487
-98	52015.0795
-97	51774.0009
-96	52883.5446
-95	52000.5363
-94	51254.3598
-93	50895.971
-92	50565.3717
-91	50598.5591
-90	50610.6676
-89	50761.6844
-88	50288.8072
-87	50491.2579
-86	50503.2268
-85	48895.6782
-84	50509.447
-83	48807.0824
-82	50154.1457
-81	50802.3963
-80	49974.1366
-79	50573.7467
-78	50151.383
-77	51538.2048
-76	50697.4314
-75	51255.3371
-74	50894.0651
-73	50972.4951
-72	51774.0229
-71	52209.4366
-70	53089.0848
-69	53945.5567
-68	53255.4891
-67	53707.214
-66	55196.2272
-65	55151.5962
-64	54638.5591
-63	55810.3325
-62	54931.1928
-61	55029.0059
-60	54059.2903
-59	54402.8173
-58	54649.8909
-57	53929.2779
-56	53201.1346
-55	53052.2081
-54	52614.8518
-53	52825.9942
-52	53447.2194
-51	52915.7153
-50	52563.105
-49	52787.5345
-48	53537.364
-47	53002.7034
-46	52368.619
-45	52298.0625
-44	51536.3001
-43	53112.9834
-42	54158.3144
-41	53322.9715
-40	53628.3051
-39	54162.0393
-38	54963.5986
-37	55420.592
-36	57298.51
-35	57145.2281
-34	58255.9642
-33	58983.5559
-32	60251.9849
-31	59970.4088
-30	61263.1015
-29	58248.2404
-28	57218.1087
-27	55148.8033
-26	54409.9411
-25	54643.2669
-24	54712.261
-23	56741.3233
-22	58022.7543
-21	60661.3049
-20	61401.2212
-19	63808.2099
-18	63845.0253
-17	64637.9492
-16	64775.2761
-15	66609.4967
-14	67747.8497
-13	69057.8863
-12	72701.809
-11	74821.6846
-10	74177.6539
-9	78395.3256
-8	79726.8551
-7	85657.3098
-6	86559.0735
-5	92948.9091
-4	103774.9807
-3	116299.4611
-2	112485.4823
-1	115940.9037
0	585813.1317
1	115940.9037
2	112485.4823
3	116299.4611
4	103774.9807
5	92948.9091
6	86559.0735
7	85657.3098
8	79726.8551
9	78395.3256
10	74177.6539
11	74821.6846
12	72701.809
13	69057.8863
14	67747.8497
15	66609.4967
16	64775.2761
17	64637.9492
18	63845.0253
19	63808.2099
20	61401.2212
21	60661.3049
22	58022.7543
23	56741.3233
24	54712.261
25	54643.2669
26	54409.9411
27	55148.8033
28	57218.1087
29	58248.2404
30	61263.1015
31	59970.4088
32	60251.9849
33	58983.5559
34	58255.9642
35	57145.2281
36	57298.51
37	55420.592
38	54963.5986
39	54162.0393
40	53628.3051
41	53322.9715
42	54158.3144
43	53112.9834
44	51536.3001
45	52298.0625
46	52368.619
47	53002.7034
48	53537.364
49	52787.5345
50	52563.105
51	52915.7153
52	53447.2194
53	52825.9942
54	52614.8518
55	53052.2081
56	53201.1346
57	53929.2779
58	54649.8909
59	54402.8173
60	54059.2903
61	55029.0059
62	54931.1928
63	55810.3325
64	54638.5591
65	55151.5962
66	55196.2272
67	53707.214
68	53255.4891
69	53945.5567
70	53089.0848
71	52209.4366
72	51774.0229
73	50972.4951
74	50894.0651
75	51255.3371
76	50697.4314
77	51538.2048
78	50151.383
79	50573.7467
80	49974.1366
81	50802.3963
82	50154.1457
83	48807.0824
84	50509.447
85	48895.6782
86	50503.2268
87	50491.2579
88	50288.8072
89	50761.6844
90	50610.6676
91	50598.5591
92	50565.3717
93	50895.971
94	51254.3598
95	52000.5363
96	52883.5446
97	51774.0009
98	52015.0795
99	51877.8487
100	50939.4863
101	50914.1031
102	50544.2754
103	50133.0163
104	49625.746
105	50775.8848
106	49464.3124
107	50186.6621
108	50277.8967
109	48369.2429
110	48805.5818
111	49429.0537
112	48372.1785
113	48628.1011
114	48900.4467
115	48735.9713
116	47195.7405
117	48487.7925
118	48329.6792
119	48263.9884
120	48261.526
121	47740.7852
122	48127.1569
123	47977.8076
124	48152.4179
125	48373.7729
126	49497.09
127	49021.9661
128	48240.1264
129	48658.5261
130	49498.0086
131	48454.1611
132	48538.8476
133	48272.6954
134	47405.0332
135	47605.8358
136	47534.6318
137	46440.6413
138	47588.5072
139	46638.7794
140	45882.188
141	45735.6912
142	44844.421
143	45854.4722
144	46122.9343
145	45093.4873
146	44360.9702
147	44746.5091
148	44613.8796
149	44977.5755
150	44191.6008
151	44445.1193
152	44696.5816
153	44020.2607
154	43163.1357
155	44149.2494
156	44943.6801
157	42909.546
158	43776.5979
159	43933.1198
160	43754.8563
161	42875.7172
162	43710.5649
163	44019.6368
164	43388.9487
165	44054.5541
166	43837.3959
167	44157.6619
168	43798.7311
169	44572.2708
170	43212.7294
171	43420.1762
172	43811.156
173	43897.6126
174	44075.7676
175	43182.4186
176	44020.1047
177	43494.5942
178	43038.3885
179	43446.5239
180	43019.3918
181	44269.9346
182	43125.6637
183	43786.6745
184	43673.7312
185	42974.9036
186	42248.9849
187	43248.7101
188	43596.3912
189	42966.6307
190	43404.5587
191	42895.7069
192	42636.4297
193	42765.2092
194	43230.8299
195	43415.71
196	42548.5989
197	42629.0596
198	42314.9339
199	41602.8193
200	21065.7722
