Position	Value
-200	8715.0551
-199	16668.6029
-198	16785.2362
-197	17249.8477
-196	16887.6729
-195	17639.2745
-194	17365.6006
-193	17122.4767
-192	17218.7373
-191	17595.0673
-190	17563.1853
-189	17224.4204
-188	17152.7052
-187	17002.082
-186	16881.5965
-185	17227.7087
-184	17610.8029
-183	17088.9818
-182	16901.5929
-181	17892.6736
-180	17316.5746
-179	17026.743
-178	16751.7741
-177	17315.9226
-176	17150.6895
-175	16759.9086
-174	17739.604
-173	17142.1092
-172	17217.3747
-171	17462.4911
-170	17446.8455
-169	17401.3325
-168	17652.1551
-167	17434.2372
-166	17117.4402
-165	17768.0217
-164	17070.5001
-163	17843.0009
-162	17497.7817
-161	17035.9038
-160	18205.302
-159	17305.2994
-158	16964.43
-157	16942.5831
-156	18154.2349
-155	17461.4269
-154	16692.1692
-153	17570.1201
-152	17480.6624
-151	17303.709
-150	17097.6482
-149	16997.3808
-148	17215.1019
-147	17204.4813
-146	16845.1928
-145	17640.4997
-144	17656.8501
-143	17661.2682
-142	17335.1369
-141	17378.4731
-140	17211.8371
-139	17492.1127
-138	17991.7743
-137	17556.4613
-136	17685.3139
-135	17461.9219
-134	17484.8739
-133	17544.573
-132	17788.4642
-131	17702.9792
-130	18653.0506
-129	18313.6154
-128	18032.73
-127	17774.969
-126	18289.1669
-125	17765.7629
-124	17612.2863
-123	17860.5501
-122	17911.1264
-121	17381.2084
-120	17661.0096
-119	17795.4573
-118	17292.5921
-117	17567.8243
-116	16702.3495
-115	17666.6383
-114	17897.042
-113	17889.1538
-112	17255.7061
-111	18122.222
-110	17695.5569
-109	17770.8534
-108	18431.3195
-107	18475.3729
-106	18097.5571
-105	18375.6582
-104	17858.9376
-103	17995.467
-102	18728.504
-101	18363.5842
-100	18333.8587
-99	18842.6247
-98	19130.2637
-97	18702.6345
-96	19045.6823
-95	19016.1785
-94	18483.508
-93	18428.2557
-92	18296.4499
-91	18396.8264
-90	18559.0931
-89	18434.1787
-88	18458.6541
-87	18991.1505
-86	18503.1193
-85	17766.704
-84	18219.4481
-83	17186.2508
-82	17873.116
-81	18441.026
-80	17745.6619
-79	18562.5159
-78	17378.3641
-77	18207.1641
-76	18193.6821
-75	18766.1442
-74	17990.4306
-73	18074.9801
-72	18690.6329
-71	18983.8605
-70	19301.6832
-69	19709.1458
-68	19318.7589
-67	19369.9066
-66	20103.9639
-65	20090.9958
-64	19651.3812
-63	20647.5422
-62	20140.867
-61	19963.5246
-60	19590.4482
-59	19819.7254
-58	19842.8944
-57	19193.052
-56	19606.7555
-55	19201.6752
-54	19521.7967
-53	19288.7723
-52	19240.7029
-51	19457.5355
-50	19090.487
-49	19253.863
-48	19685.972
-47	19078.262
-46	19048.744
-45	19062.0619
-44	18668.6938
-43	19321.2654
-42	19632.8205
-41	19014.6912
-40	19080.9316
-39	19378.7835
-38	19628.2029
-37	20022.9918
-36	20438.8536
-35	20897.7749
-34	21436.5112
-33	21799.9386
-32	22469.5765
-31	22302.6119
-30	22151.2337
-29	20755.6985
-28	19975.7041
-27	19407.3673
-26	19383.9935
-25	19319.0568
-24	18984.7147
-23	20270.1087
-22	20300.4345
-21	21985.0643
-20	21924.0144
-19	22302.5128
-18	22616.3621
-17	22948.2351
-16	22901.0428
-15	22979.2987
-14	23796.7614
-13	24064.3349
-12	25496.9182
-11	26567.8317
-10	25998.1442
-9	27622.5869
-8	28275.4096
-7	30821.8006
-6	31310.3186
-5	34011.4297
-4	39601.4679
-3	48141.1629
-2	40587.5367
-1	41753.4158
0	293284.4257
1	41753.4158
2	40587.5367
3	48141.1629
4	39601.4679
5	34011.4297
6	31310.3186
7	30821.8006
8	28275.4096
9	27622.5869
10	25998.1442
11	26567.8317
12	25496.9182
13	24064.3349
14	23796.7614
15	22979.2987
16	22901.0428
17	22948.2351
18	22616.3621
19	22302.5128
20	21924.0144
21	21985.0643
22	20300.4345
23	20270.1087
24	18984.7147
25	19319.0568
26	19383.9935
27	19407.3673
28	19975.7041
29	20755.6985
30	22151.2337
31	22302.6119
32	22469.5765
33	21799.9386
34	21436.5112
35	20897.7749
36	20438.8536
37	20022.9918
38	19628.2029
39	19378.7835
40	19080.9316
41	19014.6912
42	19632.8205
43	19321.2654
44	18668.6938
45	19062.0619
46	19048.744
47	19078.262
48	19685.972
49	19253.863
50	19090.487
51	19457.5355
52	19240.7029
53	19288.7723
54	19521.7967
55	19201.6752
56	19606.7555
57	19193.052
58	19842.8944
59	19819.7254
60	19590.4482
61	19963.5246
62	20140.867
63	20647.5422
64	19651.3812
65	20090.9958
66	20103.9639
67	19369.9066
68	19318.7589
69	19709.1458
70	19301.6832
71	18983.8605
72	18690.6329
73	18074.9801
74	17990.4306
75	18766.1442
76	18193.6821
77	18207.1641
78	17378.3641
79	18562.5159
80	17745.6619
81	18441.026
82	17873.116
83	17186.2508
84	18219.4481
85	17766.704
86	18503.1193
87	18991.1505
88	18458.6541
89	18434.1787
90	18559.0931
91	18396.8264
92	18296.4499
93	18428.2557
94	18483.508
95	19016.1785
96	19045.6823
97	18702.6345
98	19130.2637
99	18842.6247
100	18333.8587
101	18363.5842
102	18728.504
103	17995.467
104	17858.9376
105	18375.6582
106	18097.5571
107	18475.3729
108	18431.3195
109	17770.8534
110	17695.5569
111	18122.222
112	17255.7061
113	17889.1538
114	17897.042
115	17666.6383
116	16702.3495
117	17567.8243
118	17292.5921
119	17795.4573
120	17661.0096
121	17381.2084
122	17911.1264
123	17860.5501
124	17612.2863
125	17765.7629
126	18289.1669
127	17774.969
128	18032.73
129	18313.6154
130	18653.0506
131	17702.9792
132	17788.4642
133	17544.573
134	17484.8739
135	17461.9219
136	17685.3139
137	17556.4613
138	17991.7743
139	17492.1127
140	17211.8371
141	17378.4731
142	17335.1369
143	17661.2682
144	17656.8501
145	17640.4997
146	16845.1928
147	17204.4813
148	17215.1019
149	16997.3808
150	17097.6482
151	17303.709
152	17480.6624
153	17570.1201
154	16692.1692
155	17461.4269
156	18154.2349
157	16942.5831
158	16964.43
159	17305.2994
160	18205.302
161	17035.9038
162	17497.7817
163	17843.0009
164	17070.5001
165	17768.0217
166	17117.4402
167	17434.2372
168	17652.1551
169	17401.3325
170	17446.8455
171	17462.4911
172	17217.3747
173	17142.1092
174	17739.604
175	16759.9086
176	17150.6895
177	17315.9226
178	16751.7741
179	17026.743
180	17316.5746
181	17892.6736
182	16901.5929
183	17088.9818
184	17610.8029
185	17227.7087
186	16881.5965
187	17002.082
188	17152.7052
189	17224.4204
190	17563.1853
191	17595.0673
192	17218.7373
193	17122.4767
194	17365.6006
195	17639.2745
196	16887.6729
197	17249.8477
198	16785.2362
199	16668.6029
200	8715.0551
