Position	Value
-200	37873.0511
-199	74396.7648
-198	74709.4512
-197	75230.5208
-196	75200.9034
-195	75993.2631
-194	75459.9171
-193	76459.0695
-192	76066.279
-191	76090.0451
-190	76503.0547
-189	75809.5808
-188	76801.5711
-187	75862.7179
-186	75692.7673
-185	75439.9602
-184	76601.6727
-183	77046.2748
-182	75196.1065
-181	77097.2629
-180	76121.5599
-179	76775.4518
-178	76574.1029
-177	77639.8416
-176	76336.2319
-175	75631.1003
-174	77288.0914
-173	76825.8199
-172	77116.5008
-171	77094.5138
-170	76095.6588
-169	77538.6931
-168	76693.3467
-167	77329.2323
-166	77085.6374
-165	77285.1276
-164	77260.607
-163	78163.0313
-162	78350.616
-161	77544.6065
-160	78730.9233
-159	78640.0727
-158	78573.5967
-157	77993.4665
-156	79916.9185
-155	79054.0777
-154	77705.4701
-153	78646.8483
-152	79734.8279
-151	78654.8313
-150	78166.5473
-149	78070.457
-148	78053.3849
-147	79221.4618
-146	78010.833
-145	79401.3525
-144	80217.8334
-143	78984.8489
-142	77934.4014
-141	77746.0745
-140	78177.615
-139	78249.6479
-138	78957.7565
-137	78132.1779
-136	79332.1373
-135	79424.911
-134	78894.2524
-133	78158.6425
-132	80300.6021
-131	80212.4952
-130	81618.0413
-129	81433.9241
-128	80727.5731
-127	81151.1842
-126	81386.6927
-125	80980.0712
-124	80127.1895
-123	80358.1993
-122	79961.9763
-121	79619.6974
-120	80889.8081
-119	80856.0189
-118	80548.0467
-117	79810.5412
-116	79364.0851
-115	79378.0072
-114	80991.4649
-113	80494.3562
-112	79256.6229
-111	81163.3487
-110	80867.6088
-109	80149.343
-108	82210.7456
-107	81438.666
-106	81292.2197
-105	81355.782
-104	80124.9614
-103	81584.2263
-102	81943.4436
-101	82543.4791
-100	82356.805
-99	84576.9431
-98	83214.917
-97	83521.6666
-96	84401.1028
-95	85126.5761
-94	84477.2618
-93	85144.6377
-92	84697.0266
-91	84850.4694
-90	83977.5426
-89	83478.2766
-88	84553.2181
-87	83901.0082
-86	84266.4892
-85	81616.5541
-84	82683.1635
-83	80039.9836
-82	82575.5862
-81	81602.8359
-80	81332.1762
-79	81708.0599
-78	81381.3791
-77	83051.4744
-76	83023.6633
-75	83790.3714
-74	83151.398
-73	83355.7901
-72	84025.5258
-71	84976.8077
-70	87019.5801
-69	88159.8164
-68	87796.5392
-67	87601.2041
-66	89960.0453
-65	89925.111
-64	90030.2866
-63	92075.6729
-62	92782.1339
-61	91455.2371
-60	90940.8752
-59	91525.393
-58	91614.2063
-57	89737.9723
-56	88958.3846
-55	88162.8336
-54	87203.9561
-53	87033.0011
-52	88362.7196
-51	87961.1529
-50	86461.4928
-49	86859.5415
-48	88521.2515
-47	86834.5138
-46	85430.9056
-45	86773.9462
-44	85868.7898
-43	86851.4555
-42	88490.9621
-41	86992.1783
-40	87989.6131
-39	89131.0438
-38	89384.6773
-37	91178.5857
-36	93700.7946
-35	93961.7664
-34	96517.4295
-33	97930.1913
-32	99815.7379
-31	99012.1793
-30	99567.579
-29	94885.6756
-28	91250.5462
-27	87578.4725
-26	88655.6113
-25	88311.3175
-24	89012.9288
-23	90105.2004
-22	93017.9326
-21	97667.2198
-20	99327.3538
-19	101489.5049
-18	102717.5482
-17	104006.0996
-16	105268.7667
-15	106814.7783
-14	109373.9154
-13	114216.9443
-12	118247.2036
-11	122385.5913
-10	124138.5351
-9	130402.8612
-8	133733.4523
-7	144498.184
-6	146630.3737
-5	160962.595
-4	175474.7362
-3	191071.1626
-2	191174.8928
-1	201989.7664
0	777654.8052
1	201989.7664
2	191174.8928
3	191071.1626
4	175474.7362
5	160962.595
6	146630.3737
7	144498.184
8	133733.4523
9	130402.8612
10	124138.5351
11	122385.5913
12	118247.2036
13	114216.9443
14	109373.9154
15	106814.7783
16	105268.7667
17	104006.0996
18	102717.5482
19	101489.5049
20	99327.3538
21	97667.2198
22	93017.9326
23	90105.2004
24	89012.9288
25	88311.3175
26	88655.6113
27	87578.4725
28	91250.5462
29	94885.6756
30	99567.579
31	99012.1793
32	99815.7379
33	97930.1913
34	96517.4295
35	93961.7664
36	93700.7946
37	91178.5857
38	89384.6773
39	89131.0438
40	87989.6131
41	86992.1783
42	88490.9621
43	86851.4555
44	85868.7898
45	86773.9462
46	85430.9056
47	86834.5138
48	88521.2515
49	86859.5415
50	86461.4928
51	87961.1529
52	88362.7196
53	87033.0011
54	87203.9561
55	88162.8336
56	88958.3846
57	89737.9723
58	91614.2063
59	91525.393
60	90940.8752
61	91455.2371
62	92782.1339
63	92075.6729
64	90030.2866
65	89925.111
66	89960.0453
67	87601.2041
68	87796.5392
69	88159.8164
70	87019.5801
71	84976.8077
72	84025.5258
73	83355.7901
74	83151.398
75	83790.3714
76	83023.6633
77	83051.4744
78	81381.3791
79	81708.0599
80	81332.1762
81	81602.8359
82	82575.5862
83	80039.9836
84	82683.1635
85	81616.5541
86	84266.4892
87	83901.0082
88	84553.2181
89	83478.2766
90	83977.5426
91	84850.4694
92	84697.0266
93	85144.6377
94	84477.2618
95	85126.5761
96	84401.1028
97	83521.6666
98	83214.917
99	84576.9431
100	82356.805
101	82543.4791
102	81943.4436
103	81584.2263
104	80124.9614
105	81355.782
106	81292.2197
107	81438.666
108	82210.7456
109	80149.343
110	80867.6088
111	81163.3487
112	79256.6229
113	80494.3562
114	80991.4649
115	79378.0072
116	79364.0851
117	79810.5412
118	80548.0467
119	80856.0189
120	80889.8081
121	79619.6974
122	79961.9763
123	80358.1993
124	80127.1895
125	80980.0712
126	81386.6927
127	81151.1842
128	80727.5731
129	81433.9241
130	81618.0413
131	80212.4952
132	80300.6021
133	78158.6425
134	78894.2524
135	79424.911
136	79332.1373
137	78132.1779
138	78957.7565
139	78249.6479
140	78177.615
141	77746.0745
142	77934.4014
143	78984.8489
144	80217.8334
145	79401.3525
146	78010.833
147	79221.4618
148	78053.3849
149	78070.457
150	78166.5473
151	78654.8313
152	79734.8279
153	78646.8483
154	77705.4701
155	79054.0777
156	79916.9185
157	77993.4665
158	78573.5967
159	78640.0727
160	78730.9233
161	77544.6065
162	78350.616
163	78163.0313
164	77260.607
165	77285.1276
166	77085.6374
167	77329.2323
168	76693.3467
169	77538.6931
170	76095.6588
171	77094.5138
172	77116.5008
173	76825.8199
174	77288.0914
175	75631.1003
176	76336.2319
177	77639.8416
178	76574.1029
179	76775.4518
180	76121.5599
181	77097.2629
182	75196.1065
183	77046.2748
184	76601.6727
185	75439.9602
186	75692.7673
187	75862.7179
188	76801.5711
189	75809.5808
190	76503.0547
191	76090.0451
192	76066.279
193	76459.0695
194	75459.9171
195	75993.2631
196	75200.9034
197	75230.5208
198	74709.4512
199	74396.7648
200	37873.0511
