Position	Value
-200	17842.0383
-199	35755.4335
-198	35662.7793
-197	35804.9694
-196	36126.0147
-195	36556.672
-194	36233.8323
-193	36864.1091
-192	36612.7699
-191	36859.4212
-190	36634.907
-189	37155.9796
-188	37054.5575
-187	36997.4206
-186	36694.3191
-185	36885.3365
-184	37108.8206
-183	36935.1265
-182	36370.0505
-181	37401.3142
-180	36339.0164
-179	36729.3911
-178	36052.8012
-177	36498.5257
-176	36599.2288
-175	36474.2041
-174	36845.7985
-173	36275.7859
-172	37015.5588
-171	37483.8482
-170	36348.3533
-169	36865.0101
-168	36971.0527
-167	36967.4521
-166	37039.0376
-165	37616.5521
-164	37837.6414
-163	37726.2655
-162	38117.5896
-161	38019.8871
-160	38513.102
-159	38569.5002
-158	38989.585
-157	39186.6302
-156	39321.3846
-155	39733.0831
-154	39739.6178
-153	39565.3296
-152	40080.7222
-151	40097.3651
-150	39642.5015
-149	39198.973
-148	38812.0202
-147	39163.7049
-146	38804.8236
-145	38165.4634
-144	39124.9309
-143	39867.5829
-142	39130.2335
-141	39703.4403
-140	38862.2771
-139	38414.1806
-138	39173.8533
-137	39276.3375
-136	38865.3119
-135	40079.498
-134	40249.41
-133	39380.0861
-132	40005.2797
-131	41043.4702
-130	40418.2365
-129	41065.5752
-128	41121.7098
-127	40592.889
-126	42019.9347
-125	41572.5472
-124	41237.1285
-123	41114.9785
-122	41414.6102
-121	40743.8685
-120	40692.0258
-119	40620.0575
-118	39703.8418
-117	40601.0672
-116	38937.2607
-115	38859.136
-114	38815.1663
-113	38142.0085
-112	39085.2807
-111	39445.0125
-110	39668.7364
-109	39797.7265
-108	39634.6462
-107	39687.9112
-106	40434.2489
-105	40321.7529
-104	40784.7911
-103	41437.1854
-102	41854.7844
-101	42108.0781
-100	42142.0206
-99	43467.5853
-98	44450.6787
-97	43697.8653
-96	44730.7097
-95	45080.2714
-94	45209.0181
-93	45617.7782
-92	44985.2268
-91	44874.5737
-90	43848.5183
-89	43609.7245
-88	42448.8279
-87	43153.1573
-86	42694.2429
-85	42340.8319
-84	42266.8313
-83	41785.5591
-82	41916.9153
-81	42515.933
-80	41950.3804
-79	41435.6604
-78	42286.6201
-77	42394.9616
-76	42243.486
-75	42580.0166
-74	43081.7964
-73	44471.2944
-72	44785.4391
-71	44979.6685
-70	45409.2923
-69	47526.3046
-68	46681.9442
-67	48139.5232
-66	49942.9047
-65	49219.6304
-64	50543.4667
-63	50596.7283
-62	50766.5645
-61	52096.0552
-60	51043.2413
-59	49014.9584
-58	48955.0968
-57	47910.836
-56	46593.1064
-55	46366.7904
-54	46430.3507
-53	44739.5408
-52	46030.432
-51	46154.4834
-50	45466.1556
-49	44410.7081
-48	45678.1065
-47	45101.9755
-46	45016.9147
-45	45844.2318
-44	44947.4238
-43	45993.679
-42	47391.931
-41	47048.2587
-40	47719.7105
-39	48957.9189
-38	50519.4655
-37	51107.6476
-36	52975.995
-35	55467.8736
-34	56665.7701
-33	59099.3342
-32	59516.172
-31	60750.8908
-30	61146.0286
-29	59047.3981
-28	56290.6889
-27	55191.6964
-26	53382.2114
-25	52514.4235
-24	54959.5105
-23	54370.3059
-22	56328.0468
-21	59037.803
-20	58258.7961
-19	59178.2109
-18	61173.9431
-17	60638.5211
-16	62399.7896
-15	64012.449
-14	64848.9989
-13	68322.9765
-12	74242.2592
-11	75832.5992
-10	78072.2791
-9	84563.2639
-8	87263.4707
-7	95179.8696
-6	101532.8861
-5	116383.1085
-4	120629.2351
-3	138750.1076
-2	145647.7307
-1	157229.2537
0	673324.6788
1	157229.2537
2	145647.7307
3	138750.1076
4	120629.2351
5	116383.1085
6	101532.8861
7	95179.8696
8	87263.4707
9	84563.2639
10	78072.2791
11	75832.5992
12	74242.2592
13	68322.9765
14	64848.9989
15	64012.449
16	62399.7896
17	60638.5211
18	61173.9431
19	59178.2109
20	58258.7961
21	59037.803
22	56328.0468
23	54370.3059
24	54959.5105
25	52514.4235
26	53382.2114
27	55191.6964
28	56290.6889
29	59047.3981
30	61146.0286
31	60750.8908
32	59516.172
33	59099.3342
34	56665.7701
35	55467.8736
36	52975.995
37	51107.6476
38	50519.4655
39	48957.9189
40	47719.7105
41	47048.2587
42	47391.931
43	45993.679
44	44947.4238
45	45844.2318
46	45016.9147
47	45101.9755
48	45678.1065
49	44410.7081
50	45466.1556
51	46154.4834
52	46030.432
53	44739.5408
54	46430.3507
55	46366.7904
56	46593.1064
57	47910.836
58	48955.0968
59	49014.9584
60	51043.2413
61	52096.0552
62	50766.5645
63	50596.7283
64	50543.4667
65	49219.6304
66	49942.9047
67	48139.5232
68	46681.9442
69	47526.3046
70	45409.2923
71	44979.6685
72	44785.4391
73	44471.2944
74	43081.7964
75	42580.0166
76	42243.486
77	42394.9616
78	42286.6201
79	41435.6604
80	41950.3804
81	42515.933
82	41916.9153
83	41785.5591
84	42266.8313
85	42340.8319
86	42694.2429
87	43153.1573
88	42448.8279
89	43609.7245
90	43848.5183
91	44874.5737
92	44985.2268
93	45617.7782
94	45209.0181
95	45080.2714
96	44730.7097
97	43697.8653
98	44450.6787
99	43467.5853
100	42142.0206
101	42108.0781
102	41854.7844
103	41437.1854
104	40784.7911
105	40321.7529
106	40434.2489
107	39687.9112
108	39634.6462
109	39797.7265
110	39668.7364
111	39445.0125
112	39085.2807
113	38142.0085
114	38815.1663
115	38859.136
116	38937.2607
117	40601.0672
118	39703.8418
119	40620.0575
120	40692.0258
121	40743.8685
122	41414.6102
123	41114.9785
124	41237.1285
125	41572.5472
126	42019.9347
127	40592.889
128	41121.7098
129	41065.5752
130	40418.2365
131	41043.4702
132	40005.2797
133	39380.0861
134	40249.41
135	40079.498
136	38865.3119
137	39276.3375
138	39173.8533
139	38414.1806
140	38862.2771
141	39703.4403
142	39130.2335
143	39867.5829
144	39124.9309
145	38165.4634
146	38804.8236
147	39163.7049
148	38812.0202
149	39198.973
150	39642.5015
151	40097.3651
152	40080.7222
153	39565.3296
154	39739.6178
155	39733.0831
156	39321.3846
157	39186.6302
158	38989.585
159	38569.5002
160	38513.102
161	38019.8871
162	38117.5896
163	37726.2655
164	37837.6414
165	37616.5521
166	37039.0376
167	36967.4521
168	36971.0527
169	36865.0101
170	36348.3533
171	37483.8482
172	37015.5588
173	36275.7859
174	36845.7985
175	36474.2041
176	36599.2288
177	36498.5257
178	36052.8012
179	36729.3911
180	36339.0164
181	37401.3142
182	36370.0505
183	36935.1265
184	37108.8206
185	36885.3365
186	36694.3191
187	36997.4206
188	37054.5575
189	37155.9796
190	36634.907
191	36859.4212
192	36612.7699
193	36864.1091
194	36233.8323
195	36556.672
196	36126.0147
197	35804.9694
198	35662.7793
199	35755.4335
200	17842.0383
