Position	Value
-200	3353.2359
-199	6892.8526
-198	6988.7303
-197	6975.0348
-196	6736.7676
-195	7060.4939
-194	7030.5614
-193	6974.8081
-192	6710.3618
-191	7032.4562
-190	6873.0837
-189	6966.9974
-188	7062.2804
-187	6917.4925
-186	6788.7403
-185	7044.3322
-184	6921.7265
-183	6806.4955
-182	6970.2081
-181	6747.7551
-180	6765.8774
-179	6801.6776
-178	6819.9051
-177	6762.346
-176	6867.847
-175	6701.3959
-174	6803.738
-173	6775.9409
-172	6878.5064
-171	6925.8116
-170	6996.8523
-169	6686.1712
-168	6853.7607
-167	7233.5558
-166	7110.7208
-165	7420.0307
-164	7264.9225
-163	7450.2906
-162	7385.6645
-161	7332.4488
-160	7531.5609
-159	7407.4675
-158	7420.9255
-157	7542.0287
-156	7487.1925
-155	7302.2786
-154	7316.7245
-153	7360.9881
-152	7337.6688
-151	7087.2624
-150	7267.8775
-149	7029.8574
-148	7125.5132
-147	7125.2817
-146	7043.9847
-145	7222.7186
-144	6988.3676
-143	7406.5019
-142	7313.3333
-141	7684.9561
-140	7426.6894
-139	7464.7471
-138	7529.1214
-137	7612.8636
-136	7447.633
-135	7938.7491
-134	7920.6609
-133	8000.49
-132	7950.3091
-131	8276.9795
-130	7998.7737
-129	8302.5461
-128	8594.3898
-127	8552.1899
-126	8379.885
-125	8645.0183
-124	8782.0351
-123	8771.5129
-122	8370.6542
-121	8650.4813
-120	8599.8663
-119	8195.2257
-118	8039.789
-117	8092.091
-116	8250.5636
-115	8113.2135
-114	7970.5335
-113	7827.931
-112	7888.0542
-111	7749.7967
-110	7729.9042
-109	7550.0506
-108	7682.4789
-107	7681.808
-106	7384.2514
-105	7805.3003
-104	7541.7172
-103	7739.3083
-102	8199.9409
-101	7771.6166
-100	7926.8795
-99	8532.0809
-98	8308.7382
-97	8173.8371
-96	8331.5323
-95	8325.497
-94	8688.6461
-93	8850.2142
-92	8780.6006
-91	8777.6778
-90	8558.0762
-89	8733.847
-88	8332.7074
-87	8321.9254
-86	8352.707
-85	8398.1468
-84	8201.2121
-83	8275.6379
-82	8234.935
-81	8192.0073
-80	8474.5689
-79	8557.7224
-78	8423.6172
-77	8465.4162
-76	8517.1209
-75	8430.9449
-74	8389.8743
-73	8538.3984
-72	8626.9962
-71	9143.5587
-70	8806.4507
-69	9344.1207
-68	9592.8115
-67	9443.7855
-66	9938.3626
-65	9720.5358
-64	10124.6666
-63	10243.6765
-62	10001.0205
-61	10339.9455
-60	10544.8084
-59	10228.9963
-58	9745.0519
-57	9539.4217
-56	9269.3616
-55	9408.7952
-54	9196.4702
-53	8986.5126
-52	8862.6475
-51	8685.2038
-50	8864.3863
-49	8610.3907
-48	8855.3289
-47	8849.7912
-46	8663.7624
-45	9022.5931
-44	9134.9897
-43	9047.2569
-42	9098.218
-41	9324.8781
-40	9116.5488
-39	9838.0024
-38	9897.5616
-37	10082.6499
-36	10413.7065
-35	10625.5951
-34	11152.7392
-33	10992.064
-32	11240.0629
-31	11524.3511
-30	11461.9941
-29	11574.9201
-28	11610.2894
-27	10956.1853
-26	10708.5358
-25	10110.5591
-24	10078.7726
-23	10057.4689
-22	9738.1229
-21	9898.1584
-20	9933.8483
-19	10364.0749
-18	10425.3549
-17	10480.8899
-16	10966.7139
-15	11146.891
-14	12045.275
-13	12459.8154
-12	13394.9194
-11	14442.2523
-10	15232.0596
-9	17143.8511
-8	18064.6676
-7	20215.324
-6	22394.8477
-5	26019.157
-4	29547.5072
-3	35533.1205
-2	39289.8813
-1	42597.6183
0	275333.1692
1	42597.6183
2	39289.8813
3	35533.1205
4	29547.5072
5	26019.157
6	22394.8477
7	20215.324
8	18064.6676
9	17143.8511
10	15232.0596
11	14442.2523
12	13394.9194
13	12459.8154
14	12045.275
15	11146.891
16	10966.7139
17	10480.8899
18	10425.3549
19	10364.0749
20	9933.8483
21	9898.1584
22	9738.1229
23	10057.4689
24	10078.7726
25	10110.5591
26	10708.5358
27	10956.1853
28	11610.2894
29	11574.9201
30	11461.9941
31	11524.3511
32	11240.0629
33	10992.064
34	11152.7392
35	10625.5951
36	10413.7065
37	10082.6499
38	9897.5616
39	9838.0024
40	9116.5488
41	9324.8781
42	9098.218
43	9047.2569
44	9134.9897
45	9022.5931
46	8663.7624
47	8849.7912
48	8855.3289
49	8610.3907
50	8864.3863
51	8685.2038
52	8862.6475
53	8986.5126
54	9196.4702
55	9408.7952
56	9269.3616
57	9539.4217
58	9745.0519
59	10228.9963
60	10544.8084
61	10339.9455
62	10001.0205
63	10243.6765
64	10124.6666
65	9720.5358
66	9938.3626
67	9443.7855
68	9592.8115
69	9344.1207
70	8806.4507
71	9143.5587
72	8626.9962
73	8538.3984
74	8389.8743
75	8430.9449
76	8517.1209
77	8465.4162
78	8423.6172
79	8557.7224
80	8474.5689
81	8192.0073
82	8234.935
83	8275.6379
84	8201.2121
85	8398.1468
86	8352.707
87	8321.9254
88	8332.7074
89	8733.847
90	8558.0762
91	8777.6778
92	8780.6006
93	8850.2142
94	8688.6461
95	8325.497
96	8331.5323
97	8173.8371
98	8308.7382
99	8532.0809
100	7926.8795
101	7771.6166
102	8199.9409
103	7739.3083
104	7541.7172
105	7805.3003
106	7384.2514
107	7681.808
108	7682.4789
109	7550.0506
110	7729.9042
111	7749.7967
112	7888.0542
113	7827.931
114	7970.5335
115	8113.2135
116	8250.5636
117	8092.091
118	8039.789
119	8195.2257
120	8599.8663
121	8650.4813
122	8370.6542
123	8771.5129
124	8782.0351
125	8645.0183
126	8379.885
127	8552.1899
128	8594.3898
129	8302.5461
130	7998.7737
131	8276.9795
132	7950.3091
133	8000.49
134	7920.6609
135	7938.7491
136	7447.633
137	7612.8636
138	7529.1214
139	7464.7471
140	7426.6894
141	7684.9561
142	7313.3333
143	7406.5019
144	6988.3676
145	7222.7186
146	7043.9847
147	7125.2817
148	7125.5132
149	7029.8574
150	7267.8775
151	7087.2624
152	7337.6688
153	7360.9881
154	7316.7245
155	7302.2786
156	7487.1925
157	7542.0287
158	7420.9255
159	7407.4675
160	7531.5609
161	7332.4488
162	7385.6645
163	7450.2906
164	7264.9225
165	7420.0307
166	7110.7208
167	7233.5558
168	6853.7607
169	6686.1712
170	6996.8523
171	6925.8116
172	6878.5064
173	6775.9409
174	6803.738
175	6701.3959
176	6867.847
177	6762.346
178	6819.9051
179	6801.6776
180	6765.8774
181	6747.7551
182	6970.2081
183	6806.4955
184	6921.7265
185	7044.3322
186	6788.7403
187	6917.4925
188	7062.2804
189	6966.9974
190	6873.0837
191	7032.4562
192	6710.3618
193	6974.8081
194	7030.5614
195	7060.4939
196	6736.7676
197	6975.0348
198	6988.7303
199	6892.8526
200	3353.2359
