Position	Value
-200	1031.1387
-199	2029.9251
-198	2019.2326
-197	2117.5525
-196	2079.1194
-195	2109.7366
-194	2006.7018
-193	2243.698
-192	2218.2169
-191	2184.189
-190	2297.3541
-189	2329.2799
-188	2306.706
-187	2207.2804
-186	2279.8911
-185	2310.2256
-184	2327.4033
-183	2239.9249
-182	2073.5
-181	2206.053
-180	2212.4468
-179	2180.8914
-178	2225.1
-177	2153.9545
-176	2071.327
-175	2075.8091
-174	2027.9799
-173	2162.4961
-172	2082.1038
-171	2009.8281
-170	2168.1341
-169	2161.3949
-168	2176.5451
-167	2142.9327
-166	2260.2352
-165	2361.0374
-164	2251.4326
-163	2207.6837
-162	2300.8833
-161	2428.1538
-160	2401.5714
-159	2461.0039
-158	2478.4571
-157	2557.1233
-156	2410.8005
-155	2513.4729
-154	2533.5136
-153	2499.9811
-152	2524.1188
-151	2483.0891
-150	2427.425
-149	2520.6943
-148	2291.838
-147	2463.61
-146	2318.1952
-145	2327.882
-144	2511.9799
-143	2487.4461
-142	2380.1746
-141	2484.7886
-140	2410.0454
-139	2607.8183
-138	2530.9295
-137	2453.0722
-136	2563.6715
-135	2599.3042
-134	2731.4367
-133	2735.8657
-132	2621.5147
-131	2566.0897
-130	2723.4635
-129	2629.6061
-128	2786.4084
-127	2794.1166
-126	2844.4411
-125	2932.5318
-124	2883.2136
-123	2844.9619
-122	2928.2934
-121	2723.0198
-120	2602.6623
-119	2718.0796
-118	2479.4508
-117	2580.94
-116	2688.6891
-115	2483.1062
-114	2461.9054
-113	2544.3119
-112	2607.9704
-111	2722.8244
-110	2597.7541
-109	2795.6046
-108	2635.9751
-107	2649.2282
-106	2654.7341
-105	2779.6658
-104	2742.7498
-103	2792.0177
-102	2752.0602
-101	2934.6365
-100	3065.4292
-99	3239.386
-98	3424.8278
-97	3288.173
-96	3265.3247
-95	3549.1308
-94	3364.2325
-93	3551.3606
-92	3485.5681
-91	3342.3711
-90	3199.4521
-89	3194.6137
-88	3002.7431
-87	3090.8085
-86	2857.4134
-85	2872.5677
-84	2549.1342
-83	2713.7802
-82	2717.4799
-81	2714.0146
-80	2656.89
-79	2721.1571
-78	2830.1701
-77	2903.6343
-76	2960.8722
-75	2953.4584
-74	3065.7065
-73	3205.1405
-72	3170.6669
-71	3444.7187
-70	3610.8404
-69	3739.4761
-68	3919.1372
-67	4200.4326
-66	4378.5875
-65	4347.142
-64	4373.7396
-63	4327.661
-62	4371.1
-61	4672.9411
-60	4464.7663
-59	4347.526
-58	4226.8934
-57	3994.503
-56	3619.3697
-55	3578.8842
-54	3246.9443
-53	3159.7184
-52	3219.9076
-51	3212.0453
-50	3228.2589
-49	3168.9435
-48	3283.9738
-47	3290.0857
-46	3244.3064
-45	3594.289
-44	3405.7146
-43	3359.1309
-42	3656.1012
-41	3773.2303
-40	4171.6237
-39	3996.8362
-38	4541.1854
-37	4554.226
-36	5228.8179
-35	5860.3864
-34	5624.0004
-33	6257.4747
-32	6282.0793
-31	6397.5493
-30	6465.2544
-29	6613.3684
-28	5410.4108
-27	5199.3498
-26	4829.5158
-25	4386.4678
-24	4355.2372
-23	4274.2575
-22	4602.6007
-21	4637.537
-20	4639.9457
-19	4660.3664
-18	4961.0592
-17	5106.6992
-16	5204.8693
-15	5377.6567
-14	5538.5692
-13	5672.9916
-12	6414.5066
-11	6933.265
-10	7318.5034
-9	8499.671
-8	8694.616
-7	10215.6185
-6	10945.7393
-5	13267.6447
-4	14703.6529
-3	17329.014
-2	18812.9241
-1	21756.176
0	105403.6219
1	21756.176
2	18812.9241
3	17329.014
4	14703.6529
5	13267.6447
6	10945.7393
7	10215.6185
8	8694.616
9	8499.671
10	7318.5034
11	6933.265
12	6414.5066
13	5672.9916
14	5538.5692
15	5377.6567
16	5204.8693
17	5106.6992
18	4961.0592
19	4660.3664
20	4639.9457
21	4637.537
22	4602.6007
23	4274.2575
24	4355.2372
25	4386.4678
26	4829.5158
27	5199.3498
28	5410.4108
29	6613.3684
30	6465.2544
31	6397.5493
32	6282.0793
33	6257.4747
34	5624.0004
35	5860.3864
36	5228.8179
37	4554.226
38	4541.1854
39	3996.8362
40	4171.6237
41	3773.2303
42	3656.1012
43	3359.1309
44	3405.7146
45	3594.289
46	3244.3064
47	3290.0857
48	3283.9738
49	3168.9435
50	3228.2589
51	3212.0453
52	3219.9076
53	3159.7184
54	3246.9443
55	3578.8842
56	3619.3697
57	3994.503
58	4226.8934
59	4347.526
60	4464.7663
61	4672.9411
62	4371.1
63	4327.661
64	4373.7396
65	4347.142
66	4378.5875
67	4200.4326
68	3919.1372
69	3739.4761
70	3610.8404
71	3444.7187
72	3170.6669
73	3205.1405
74	3065.7065
75	2953.4584
76	2960.8722
77	2903.6343
78	2830.1701
79	2721.1571
80	2656.89
81	2714.0146
82	2717.4799
83	2713.7802
84	2549.1342
85	2872.5677
86	2857.4134
87	3090.8085
88	3002.7431
89	3194.6137
90	3199.4521
91	3342.3711
92	3485.5681
93	3551.3606
94	3364.2325
95	3549.1308
96	3265.3247
97	3288.173
98	3424.8278
99	3239.386
100	3065.4292
101	2934.6365
102	2752.0602
103	2792.0177
104	2742.7498
105	2779.6658
106	2654.7341
107	2649.2282
108	2635.9751
109	2795.6046
110	2597.7541
111	2722.8244
112	2607.9704
113	2544.3119
114	2461.9054
115	2483.1062
116	2688.6891
117	2580.94
118	2479.4508
119	2718.0796
120	2602.6623
121	2723.0198
122	2928.2934
123	2844.9619
124	2883.2136
125	2932.5318
126	2844.4411
127	2794.1166
128	2786.4084
129	2629.6061
130	2723.4635
131	2566.0897
132	2621.5147
133	2735.8657
134	2731.4367
135	2599.3042
136	2563.6715
137	2453.0722
138	2530.9295
139	2607.8183
140	2410.0454
141	2484.7886
142	2380.1746
143	2487.4461
144	2511.9799
145	2327.882
146	2318.1952
147	2463.61
148	2291.838
149	2520.6943
150	2427.425
151	2483.0891
152	2524.1188
153	2499.9811
154	2533.5136
155	2513.4729
156	2410.8005
157	2557.1233
158	2478.4571
159	2461.0039
160	2401.5714
161	2428.1538
162	2300.8833
163	2207.6837
164	2251.4326
165	2361.0374
166	2260.2352
167	2142.9327
168	2176.5451
169	2161.3949
170	2168.1341
171	2009.8281
172	2082.1038
173	2162.4961
174	2027.9799
175	2075.8091
176	2071.327
177	2153.9545
178	2225.1
179	2180.8914
180	2212.4468
181	2206.053
182	2073.5
183	2239.9249
184	2327.4033
185	2310.2256
186	2279.8911
187	2207.2804
188	2306.706
189	2329.2799
190	2297.3541
191	2184.189
192	2218.2169
193	2243.698
194	2006.7018
195	2109.7366
196	2079.1194
197	2117.5525
198	2019.2326
199	2029.9251
200	1031.1387
