Position	Value
-200	2592.9444
-199	5204.1471
-198	5190.9177
-197	5294.1467
-196	5267.8327
-195	5262.6972
-194	5321.1132
-193	5665.0048
-192	5523.1819
-191	5294.894
-190	5662.893
-189	5765.5118
-188	5593.7627
-187	5625.9829
-186	5553.1854
-185	5615.0309
-184	5659.218
-183	5605.0188
-182	5539.7331
-181	5513.0428
-180	5512.4229
-179	5498.6743
-178	5466.0947
-177	5316.9496
-176	5246.3986
-175	5320.7974
-174	5325.7142
-173	5410.878
-172	5361.9732
-171	5051.7259
-170	5308.4999
-169	5185.2178
-168	5127.0789
-167	5371.6927
-166	5430.7181
-165	5460.9595
-164	5317.9219
-163	5281.8102
-162	5096.8771
-161	5321.6206
-160	5325.9741
-159	5484.8168
-158	5280.3184
-157	5766.2469
-156	5575.8384
-155	5523.4313
-154	5710.9814
-153	5477.2526
-152	5748.2023
-151	5511.1359
-150	5700.9695
-149	5534.7293
-148	5284.7158
-147	5455.9513
-146	5375.8073
-145	5335.2335
-144	5297.0407
-143	5515.1505
-142	5470.7081
-141	5476.9314
-140	5651.6142
-139	5514.7225
-138	5642.0982
-137	5687.2767
-136	5730.3413
-135	6040.8943
-134	5855.2406
-133	5941.3622
-132	6148.4502
-131	6143.5961
-130	5704.0626
-129	5762.8828
-128	5915.5832
-127	5872.4871
-126	6083.3319
-125	5959.87
-124	6002.8588
-123	6018.8486
-122	5900.3237
-121	6121.5992
-120	5678.5676
-119	5974.5792
-118	5588.9159
-117	5576.9519
-116	5639.3026
-115	5353.0781
-114	5150.1181
-113	5544.0011
-112	5525.5033
-111	5793.7643
-110	5756.5048
-109	5599.4306
-108	5738.9102
-107	5920.1306
-106	5805.0388
-105	6003.9741
-104	6166.7368
-103	6360.4105
-102	6677.9756
-101	6803.2805
-100	6638.4225
-99	6980.7321
-98	6941.4378
-97	7009.0297
-96	7223.1499
-95	7142.9724
-94	7105.6452
-93	7252.3307
-92	7169.6826
-91	7124.9174
-90	6674.273
-89	6934.7767
-88	6308.357
-87	6559.2198
-86	6412.9812
-85	6241.3528
-84	6144.1713
-83	5858.2501
-82	6238.0588
-81	5916.681
-80	5941.1279
-79	5910.7908
-78	6424.4355
-77	5929.3581
-76	6584.6355
-75	6376.0021
-74	6513.9405
-73	6972.8146
-72	6973.964
-71	7438.1572
-70	7562.7644
-69	7822.5302
-68	8102.2385
-67	7935.6273
-66	8818.058
-65	8819.6289
-64	9149.686
-63	9137.6046
-62	8938.0502
-61	9499.6919
-60	9515.3264
-59	8896.8104
-58	8528.4683
-57	8087.884
-56	7684.4005
-55	7544.3857
-54	7212.57
-53	6981.7714
-52	6991.9534
-51	6869.6587
-50	6781.4478
-49	6754.995
-48	7215.8272
-47	6997.6646
-46	6955.7925
-45	7638.7898
-44	7648.8939
-43	7746.4551
-42	8402.9978
-41	8351.7698
-40	8538.4963
-39	8884.2526
-38	9222.0023
-37	9628.9196
-36	10366.6352
-35	11045.159
-34	11015.3995
-33	11590.6837
-32	11871.084
-31	12064.2783
-30	12966.6253
-29	12417.0154
-28	11312.4287
-27	11061.999
-26	10153.7112
-25	9765.9215
-24	10171.0197
-23	9926.1782
-22	10208.3181
-21	10396.4741
-20	10185.7775
-19	10413.6385
-18	10561.0646
-17	11003.3767
-16	11609.0748
-15	11814.9124
-14	12424.6133
-13	13319.0172
-12	15180.4483
-11	15619.1441
-10	17083.4943
-9	19268.9649
-8	20419.748
-7	23214.7996
-6	26097.859
-5	31002.1016
-4	33178.8279
-3	39083.0133
-2	41807.383
-1	44001.8081
0	218999.1077
1	44001.8081
2	41807.383
3	39083.0133
4	33178.8279
5	31002.1016
6	26097.859
7	23214.7996
8	20419.748
9	19268.9649
10	17083.4943
11	15619.1441
12	15180.4483
13	13319.0172
14	12424.6133
15	11814.9124
16	11609.0748
17	11003.3767
18	10561.0646
19	10413.6385
20	10185.7775
21	10396.4741
22	10208.3181
23	9926.1782
24	10171.0197
25	9765.9215
26	10153.7112
27	11061.999
28	11312.4287
29	12417.0154
30	12966.6253
31	12064.2783
32	11871.084
33	11590.6837
34	11015.3995
35	11045.159
36	10366.6352
37	9628.9196
38	9222.0023
39	8884.2526
40	8538.4963
41	8351.7698
42	8402.9978
43	7746.4551
44	7648.8939
45	7638.7898
46	6955.7925
47	6997.6646
48	7215.8272
49	6754.995
50	6781.4478
51	6869.6587
52	6991.9534
53	6981.7714
54	7212.57
55	7544.3857
56	7684.4005
57	8087.884
58	8528.4683
59	8896.8104
60	9515.3264
61	9499.6919
62	8938.0502
63	9137.6046
64	9149.686
65	8819.6289
66	8818.058
67	7935.6273
68	8102.2385
69	7822.5302
70	7562.7644
71	7438.1572
72	6973.964
73	6972.8146
74	6513.9405
75	6376.0021
76	6584.6355
77	5929.3581
78	6424.4355
79	5910.7908
80	5941.1279
81	5916.681
82	6238.0588
83	5858.2501
84	6144.1713
85	6241.3528
86	6412.9812
87	6559.2198
88	6308.357
89	6934.7767
90	6674.273
91	7124.9174
92	7169.6826
93	7252.3307
94	7105.6452
95	7142.9724
96	7223.1499
97	7009.0297
98	6941.4378
99	6980.7321
100	6638.4225
101	6803.2805
102	6677.9756
103	6360.4105
104	6166.7368
105	6003.9741
106	5805.0388
107	5920.1306
108	5738.9102
109	5599.4306
110	5756.5048
111	5793.7643
112	5525.5033
113	5544.0011
114	5150.1181
115	5353.0781
116	5639.3026
117	5576.9519
118	5588.9159
119	5974.5792
120	5678.5676
121	6121.5992
122	5900.3237
123	6018.8486
124	6002.8588
125	5959.87
126	6083.3319
127	5872.4871
128	5915.5832
129	5762.8828
130	5704.0626
131	6143.5961
132	6148.4502
133	5941.3622
134	5855.2406
135	6040.8943
136	5730.3413
137	5687.2767
138	5642.0982
139	5514.7225
140	5651.6142
141	5476.9314
142	5470.7081
143	5515.1505
144	5297.0407
145	5335.2335
146	5375.8073
147	5455.9513
148	5284.7158
149	5534.7293
150	5700.9695
151	5511.1359
152	5748.2023
153	5477.2526
154	5710.9814
155	5523.4313
156	5575.8384
157	5766.2469
158	5280.3184
159	5484.8168
160	5325.9741
161	5321.6206
162	5096.8771
163	5281.8102
164	5317.9219
165	5460.9595
166	5430.7181
167	5371.6927
168	5127.0789
169	5185.2178
170	5308.4999
171	5051.7259
172	5361.9732
173	5410.878
174	5325.7142
175	5320.7974
176	5246.3986
177	5316.9496
178	5466.0947
179	5498.6743
180	5512.4229
181	5513.0428
182	5539.7331
183	5605.0188
184	5659.218
185	5615.0309
186	5553.1854
187	5625.9829
188	5593.7627
189	5765.5118
190	5662.893
191	5294.894
192	5523.1819
193	5665.0048
194	5321.1132
195	5262.6972
196	5267.8327
197	5294.1467
198	5190.9177
199	5204.1471
200	2592.9444
