Position	Value
-200	13466.5042
-199	27178.8716
-198	27325.9156
-197	27487.5442
-196	26907.9806
-195	27233.8562
-194	27408.1153
-193	27450.7757
-192	27514.1826
-191	27596.7397
-190	27975.1595
-189	27537.2893
-188	27584.195
-187	27540.0836
-186	27461.5209
-185	27521.8289
-184	26998.1244
-183	27483.6898
-182	27018.5849
-181	26728.8456
-180	27195.2461
-179	27001.3069
-178	27121.001
-177	27110.0424
-176	27732.3615
-175	27284.2581
-174	27741.1646
-173	27745.7652
-172	27653.9768
-171	28328.0859
-170	28156.4747
-169	28187.569
-168	28317.2674
-167	28503.2009
-166	28362.7332
-165	29633.7156
-164	28917.9552
-163	28922.4278
-162	29732.5349
-161	29430.2496
-160	29195.3756
-159	29886.0087
-158	29519.499
-157	29914.3861
-156	30376.8636
-155	29637.6167
-154	29949.5277
-153	29230.455
-152	29144.2119
-151	29059.9153
-150	29498.486
-149	28610.9961
-148	28258.7876
-147	28749.4909
-146	28796.2608
-145	28474.4331
-144	29292.9544
-143	29369.8737
-142	29028.24
-141	29646.2229
-140	29097.1272
-139	29307.85
-138	29866.3953
-137	29556.7806
-136	30220.3273
-135	30677.8986
-134	30376.8775
-133	30520.1021
-132	30900.6459
-131	30954.9364
-130	30406.8214
-129	31503.6964
-128	31178.0731
-127	31372.8724
-126	31542.4369
-125	31212.7741
-124	31381.9432
-123	31631.9131
-122	31137.8925
-121	31068.3742
-120	30665.613
-119	30253.085
-118	29798.0692
-117	30913.5485
-116	29932.1032
-115	30017.2199
-114	30251.2552
-113	30453.6041
-112	30352.981
-111	30384.6788
-110	30386.7701
-109	30049.2111
-108	30695.8341
-107	30444.7657
-106	31001.4257
-105	30931.177
-104	31266.1081
-103	31814.836
-102	31826.2408
-101	32207.3039
-100	32077.97
-99	33004.0677
-98	33497.6826
-97	33244.847
-96	33519.9981
-95	33731.8556
-94	33823.129
-93	33577.2089
-92	33888.7328
-91	33542.3963
-90	32574.9309
-89	32771.8587
-88	32328.4944
-87	32467.092
-86	31750.1419
-85	31644.8293
-84	31299.285
-83	31588.1521
-82	31112.156
-81	31409.9545
-80	31278.2303
-79	31883.4928
-78	32221.1174
-77	32274.0735
-76	32193.3194
-75	32901.1756
-74	32520.7856
-73	32832.7101
-72	33807.3565
-71	33943.1742
-70	34481.9043
-69	34842.7595
-68	35508.6949
-67	35617.0218
-66	36930.1502
-65	36917.0422
-64	36483.6123
-63	36926.1584
-62	36386.0115
-61	36763.3106
-60	37535.0981
-59	35986.1295
-58	35727.0285
-57	35307.2475
-56	34251.6871
-55	33713.6931
-54	34225.1383
-53	33297.3526
-52	33333.5838
-51	33914.4318
-50	33466.8242
-49	33581.3744
-48	33464.5351
-47	33412.9004
-46	33512.5728
-45	34698.1546
-44	34092.0234
-43	34375.7496
-42	34811.4122
-41	34388.8069
-40	35281.1393
-39	36518.0092
-38	36685.6756
-37	37934.7288
-36	39004.0638
-35	39935.9951
-34	41465.48
-33	43326.417
-32	44315.3807
-31	45194.8407
-30	47069.9087
-29	44690.0483
-28	41803.5304
-27	38992.8865
-26	36095.5557
-25	36356.8332
-24	37633.2274
-23	37479.4726
-22	37591.7767
-21	39052.724
-20	38406.0881
-19	39368.8318
-18	40625.0972
-17	40972.9125
-16	42240.2147
-15	44423.6708
-14	45533.7749
-13	47356.978
-12	52208.0845
-11	55092.5602
-10	56861.7324
-9	60974.2009
-8	62676.2918
-7	69486.0375
-6	74497.1088
-5	84941.5493
-4	91840.4427
-3	100024.6571
-2	109327.1464
-1	114246.1652
0	876925.3818
1	114246.1652
2	109327.1464
3	100024.6571
4	91840.4427
5	84941.5493
6	74497.1088
7	69486.0375
8	62676.2918
9	60974.2009
10	56861.7324
11	55092.5602
12	52208.0845
13	47356.978
14	45533.7749
15	44423.6708
16	42240.2147
17	40972.9125
18	40625.0972
19	39368.8318
20	38406.0881
21	39052.724
22	37591.7767
23	37479.4726
24	37633.2274
25	36356.8332
26	36095.5557
27	38992.8865
28	41803.5304
29	44690.0483
30	47069.9087
31	45194.8407
32	44315.3807
33	43326.417
34	41465.48
35	39935.9951
36	39004.0638
37	37934.7288
38	36685.6756
39	36518.0092
40	35281.1393
41	34388.8069
42	34811.4122
43	34375.7496
44	34092.0234
45	34698.1546
46	33512.5728
47	33412.9004
48	33464.5351
49	33581.3744
50	33466.8242
51	33914.4318
52	33333.5838
53	33297.3526
54	34225.1383
55	33713.6931
56	34251.6871
57	35307.2475
58	35727.0285
59	35986.1295
60	37535.0981
61	36763.3106
62	36386.0115
63	36926.1584
64	36483.6123
65	36917.0422
66	36930.1502
67	35617.0218
68	35508.6949
69	34842.7595
70	34481.9043
71	33943.1742
72	33807.3565
73	32832.7101
74	32520.7856
75	32901.1756
76	32193.3194
77	32274.0735
78	32221.1174
79	31883.4928
80	31278.2303
81	31409.9545
82	31112.156
83	31588.1521
84	31299.285
85	31644.8293
86	31750.1419
87	32467.092
88	32328.4944
89	32771.8587
90	32574.9309
91	33542.3963
92	33888.7328
93	33577.2089
94	33823.129
95	33731.8556
96	33519.9981
97	33244.847
98	33497.6826
99	33004.0677
100	32077.97
101	32207.3039
102	31826.2408
103	31814.836
104	31266.1081
105	30931.177
106	31001.4257
107	30444.7657
108	30695.8341
109	30049.2111
110	30386.7701
111	30384.6788
112	30352.981
113	30453.6041
114	30251.2552
115	30017.2199
116	29932.1032
117	30913.5485
118	29798.0692
119	30253.085
120	30665.613
121	31068.3742
122	31137.8925
123	31631.9131
124	31381.9432
125	31212.7741
126	31542.4369
127	31372.8724
128	31178.0731
129	31503.6964
130	30406.8214
131	30954.9364
132	30900.6459
133	30520.1021
134	30376.8775
135	30677.8986
136	30220.3273
137	29556.7806
138	29866.3953
139	29307.85
140	29097.1272
141	29646.2229
142	29028.24
143	29369.8737
144	29292.9544
145	28474.4331
146	28796.2608
147	28749.4909
148	28258.7876
149	28610.9961
150	29498.486
151	29059.9153
152	29144.2119
153	29230.455
154	29949.5277
155	29637.6167
156	30376.8636
157	29914.3861
158	29519.499
159	29886.0087
160	29195.3756
161	29430.2496
162	29732.5349
163	28922.4278
164	28917.9552
165	29633.7156
166	28362.7332
167	28503.2009
168	28317.2674
169	28187.569
170	28156.4747
171	28328.0859
172	27653.9768
173	27745.7652
174	27741.1646
175	27284.2581
176	27732.3615
177	27110.0424
178	27121.001
179	27001.3069
180	27195.2461
181	26728.8456
182	27018.5849
183	27483.6898
184	26998.1244
185	27521.8289
186	27461.5209
187	27540.0836
188	27584.195
189	27537.2893
190	27975.1595
191	27596.7397
192	27514.1826
193	27450.7757
194	27408.1153
195	27233.8562
196	26907.9806
197	27487.5442
198	27325.9156
199	27178.8716
200	13466.5042
