Position	Value
-200	2192.2159
-199	4754.32
-198	4376.2285
-197	4639.5177
-196	4450.4567
-195	4517.1541
-194	4591.0941
-193	4916.6297
-192	5021.4285
-191	5105.4265
-190	5196.4298
-189	4978.1499
-188	5045.0172
-187	5113.3715
-186	5193.8412
-185	5194.2902
-184	5033.4682
-183	5046.2941
-182	4999.9523
-181	4775.7005
-180	4822.2383
-179	4767.7431
-178	5030.1176
-177	4630.5806
-176	4480.4851
-175	4601.1474
-174	4596.8866
-173	4561.4711
-172	4502.6569
-171	4542.8758
-170	4435.9029
-169	4567.9302
-168	4658.933
-167	4441.813
-166	4768.7743
-165	4971.4025
-164	4960.4724
-163	5139.0569
-162	5111.699
-161	5325.1487
-160	5364.1273
-159	5414.7255
-158	5394.1103
-157	5472.6196
-156	5550.7248
-155	5603.481
-154	5530.2717
-153	5565.2922
-152	5254.8817
-151	5489.7368
-150	5357.2397
-149	5265.297
-148	4832.519
-147	4925.3761
-146	4603.5363
-145	4840.5407
-144	4795.0594
-143	4743.38
-142	4751.5069
-141	4674.3782
-140	4743.7942
-139	4951.611
-138	4582.6454
-137	4873.9338
-136	5073.2534
-135	5340.7711
-134	5283.7295
-133	5600.5299
-132	5664.2068
-131	5896.4394
-130	5675.0061
-129	5987.6603
-128	5958.5859
-127	6387.9954
-126	6017.4361
-125	6469.0008
-124	6319.9423
-123	6139.2942
-122	6349.8201
-121	6074.5077
-120	6043.8826
-119	6135.4526
-118	5693.9567
-117	5718.9382
-116	5071.6596
-115	5482.6383
-114	5141.5119
-113	4959.468
-112	4880.6752
-111	4944.8115
-110	5314.9805
-109	5032.3005
-108	5017.0128
-107	5141.0271
-106	5190.2063
-105	5260.9969
-104	5446.5359
-103	5904.8317
-102	5698.6158
-101	6070.8247
-100	6237.094
-99	6703.7697
-98	6780.5839
-97	6767.3466
-96	6932.7757
-95	7317.7444
-94	7195.0068
-93	7236.3836
-92	7097.1972
-91	7071.2951
-90	6877.9194
-89	6658.8886
-88	6192.8733
-87	5975.5386
-86	5765.4575
-85	5744.0487
-84	5287.3091
-83	5172.7181
-82	5120.9315
-81	5244.7522
-80	5010.5366
-79	5102.2753
-78	5225.7704
-77	5174.1637
-76	5166.5957
-75	5303.7847
-74	5357.1186
-73	5798.0415
-72	5752.9661
-71	6559.0285
-70	6540.2495
-69	6964.2241
-68	7550.2759
-67	7495.8672
-66	7964.4212
-65	7734.5309
-64	8434.1806
-63	8655.459
-62	8494.1517
-61	8591.4315
-60	8675.7365
-59	8399.8605
-58	7749.2629
-57	7295.0334
-56	6440.2714
-55	6396.1355
-54	6068.8336
-53	5838.6433
-52	5579.3788
-51	5348.2773
-50	5393.918
-49	5448.7873
-48	5254.7695
-47	5285.2982
-46	5384.1016
-45	5715.5098
-44	5558.3535
-43	5734.2961
-42	5781.8603
-41	6045.1713
-40	6540.7472
-39	7626.7647
-38	7622.9757
-37	7762.3976
-36	8621.9444
-35	9132.753
-34	9631.3955
-33	10111.664
-32	11127.4847
-31	11196.1061
-30	11428.45
-29	11613.4475
-28	9778.2263
-27	8663.963
-26	7275.7576
-25	7380.5139
-24	7319.4871
-23	6809.2966
-22	6520.5279
-21	6561.971
-20	6338.0363
-19	6309.2579
-18	6666.2895
-17	6216.9477
-16	6694.0636
-15	6541.8789
-14	6959.9886
-13	7243.4474
-12	8060.5146
-11	7898.6716
-10	8522.9618
-9	9419.8788
-8	9665.2198
-7	11234.4186
-6	10674.6361
-5	13438.7279
-4	14232.349
-3	15191.0943
-2	14540.75
-1	13266.5636
0	166891.0475
1	13266.5636
2	14540.75
3	15191.0943
4	14232.349
5	13438.7279
6	10674.6361
7	11234.4186
8	9665.2198
9	9419.8788
10	8522.9618
11	7898.6716
12	8060.5146
13	7243.4474
14	6959.9886
15	6541.8789
16	6694.0636
17	6216.9477
18	6666.2895
19	6309.2579
20	6338.0363
21	6561.971
22	6520.5279
23	6809.2966
24	7319.4871
25	7380.5139
26	7275.7576
27	8663.963
28	9778.2263
29	11613.4475
30	11428.45
31	11196.1061
32	11127.4847
33	10111.664
34	9631.3955
35	9132.753
36	8621.9444
37	7762.3976
38	7622.9757
39	7626.7647
40	6540.7472
41	6045.1713
42	5781.8603
43	5734.2961
44	5558.3535
45	5715.5098
46	5384.1016
47	5285.2982
48	5254.7695
49	5448.7873
50	5393.918
51	5348.2773
52	5579.3788
53	5838.6433
54	6068.8336
55	6396.1355
56	6440.2714
57	7295.0334
58	7749.2629
59	8399.8605
60	8675.7365
61	8591.4315
62	8494.1517
63	8655.459
64	8434.1806
65	7734.5309
66	7964.4212
67	7495.8672
68	7550.2759
69	6964.2241
70	6540.2495
71	6559.0285
72	5752.9661
73	5798.0415
74	5357.1186
75	5303.7847
76	5166.5957
77	5174.1637
78	5225.7704
79	5102.2753
80	5010.5366
81	5244.7522
82	5120.9315
83	5172.7181
84	5287.3091
85	5744.0487
86	5765.4575
87	5975.5386
88	6192.8733
89	6658.8886
90	6877.9194
91	7071.2951
92	7097.1972
93	7236.3836
94	7195.0068
95	7317.7444
96	6932.7757
97	6767.3466
98	6780.5839
99	6703.7697
100	6237.094
101	6070.8247
102	5698.6158
103	5904.8317
104	5446.5359
105	5260.9969
106	5190.2063
107	5141.0271
108	5017.0128
109	5032.3005
110	5314.9805
111	4944.8115
112	4880.6752
113	4959.468
114	5141.5119
115	5482.6383
116	5071.6596
117	5718.9382
118	5693.9567
119	6135.4526
120	6043.8826
121	6074.5077
122	6349.8201
123	6139.2942
124	6319.9423
125	6469.0008
126	6017.4361
127	6387.9954
128	5958.5859
129	5987.6603
130	5675.0061
131	5896.4394
132	5664.2068
133	5600.5299
134	5283.7295
135	5340.7711
136	5073.2534
137	4873.9338
138	4582.6454
139	4951.611
140	4743.7942
141	4674.3782
142	4751.5069
143	4743.38
144	4795.0594
145	4840.5407
146	4603.5363
147	4925.3761
148	4832.519
149	5265.297
150	5357.2397
151	5489.7368
152	5254.8817
153	5565.2922
154	5530.2717
155	5603.481
156	5550.7248
157	5472.6196
158	5394.1103
159	5414.7255
160	5364.1273
161	5325.1487
162	5111.699
163	5139.0569
164	4960.4724
165	4971.4025
166	4768.7743
167	4441.813
168	4658.933
169	4567.9302
170	4435.9029
171	4542.8758
172	4502.6569
173	4561.4711
174	4596.8866
175	4601.1474
176	4480.4851
177	4630.5806
178	5030.1176
179	4767.7431
180	4822.2383
181	4775.7005
182	4999.9523
183	5046.2941
184	5033.4682
185	5194.2902
186	5193.8412
187	5113.3715
188	5045.0172
189	4978.1499
190	5196.4298
191	5105.4265
192	5021.4285
193	4916.6297
194	4591.0941
195	4517.1541
196	4450.4567
197	4639.5177
198	4376.2285
199	4754.32
200	2192.2159
