Position	Value
-200	40997.0653
-199	82043.9431
-198	83892.5558
-197	83218.1004
-196	83369.9979
-195	83262.9149
-194	83109.9511
-193	84923.1733
-192	83646.3871
-191	83485.261
-190	83744.1348
-189	84114.804
-188	84304.619
-187	84324.2897
-186	83955.1997
-185	84925.8378
-184	83083.8776
-183	83941.6238
-182	83855.796
-181	84278.3036
-180	84884.9632
-179	84875.3256
-178	84198.2815
-177	84133.1934
-176	84791.636
-175	83806.0228
-174	85225.7137
-173	84160.9596
-172	83934.2314
-171	84206.1479
-170	84578.6829
-169	85072.9996
-168	84472.6819
-167	85914.5695
-166	85185.9909
-165	86311.8362
-164	86192.3438
-163	86117.1874
-162	87909.7848
-161	86839.0732
-160	87214.8035
-159	88388.5409
-158	87520.0248
-157	88956.2079
-156	88751.1118
-155	88250.6371
-154	87430.8869
-153	87770.362
-152	86569.6501
-151	86618.3048
-150	87266.4731
-149	85579.5277
-148	85787.7366
-147	85920.3632
-146	84546.5525
-145	86169.0944
-144	85963.1516
-143	86525.3149
-142	86823.6138
-141	86440.6249
-140	86869.3406
-139	87691.8359
-138	87819.9304
-137	87981.0691
-136	88573.9785
-135	89288.2675
-134	89114.0853
-133	90035.1868
-132	90556.2832
-131	90533.4034
-130	91367.329
-129	92162.0381
-128	92595.6386
-127	92615.1577
-126	92736.7049
-125	92616.9107
-124	91860.5863
-123	92603.0868
-122	90382.0863
-121	90849.5216
-120	89656.7304
-119	88916.4927
-118	87731.9289
-117	87805.8064
-116	86618.4611
-115	87011.1508
-114	87122.364
-113	86751.831
-112	87365.3802
-111	87285.736
-110	88372.7114
-109	88436.3824
-108	88881.187
-107	89034.9801
-106	89148.6756
-105	90383.3536
-104	90315.1537
-103	91454.3287
-102	92235.1796
-101	92971.0605
-100	94192.3679
-99	95433.2714
-98	96544.8692
-97	95722.2059
-96	96670.1851
-95	97525.7977
-94	96683.7749
-93	98743.3657
-92	96634.2924
-91	95744.6004
-90	94868.8419
-89	93182.5453
-88	91385.7287
-87	92133.8188
-86	90918.9135
-85	90517.3638
-84	88621.939
-83	89774.1596
-82	88651.8914
-81	89600.6412
-80	88046.6888
-79	88977.1859
-78	89952.23
-77	89191.5556
-76	90027.5092
-75	91630.9965
-74	92817.1479
-73	93321.494
-72	95295.61
-71	97047.0384
-70	97472.4837
-69	99948.3116
-68	101036.0256
-67	101448.1093
-66	104133.0411
-65	105243.9416
-64	106282.1842
-63	107633.9182
-62	106483.2663
-61	108716.8342
-60	105335.6971
-59	104005.7373
-58	102143.6673
-57	99949.1734
-56	96293.7061
-55	93601.482
-54	92514.9547
-53	90924.1373
-52	90003.6086
-51	90044.4578
-50	89965.1455
-49	89521.8688
-48	90328.3622
-47	90391.0576
-46	91673.6692
-45	93145.3502
-44	92096.9932
-43	93378.4171
-42	95118.7102
-41	96504.5792
-40	99345.4497
-39	101267.3222
-38	103619.5454
-37	105752.2386
-36	108162.4466
-35	111536.077
-34	114892.0457
-33	117673.8923
-32	121439.9953
-31	123464.1892
-30	122949.7026
-29	122451.438
-28	120493.6407
-27	112349.3837
-26	99291.7358
-25	93740.12
-24	93992.4072
-23	96263.4943
-22	96849.4143
-21	99331.4593
-20	98895.0398
-19	99571.6064
-18	101723.2824
-17	104402.747
-16	108405.2792
-15	110812.1851
-14	114029.0922
-13	123081.5322
-12	136263.8769
-11	148068.0005
-10	158626.0788
-9	176062.8011
-8	187957.0481
-7	213040.9325
-6	237079.2007
-5	278343.5397
-4	296537.1809
-3	334169.5274
-2	402752.7226
-1	459066.1326
0	2509637.4778
1	459066.1326
2	402752.7226
3	334169.5274
4	296537.1809
5	278343.5397
6	237079.2007
7	213040.9325
8	187957.0481
9	176062.8011
10	158626.0788
11	148068.0005
12	136263.8769
13	123081.5322
14	114029.0922
15	110812.1851
16	108405.2792
17	104402.747
18	101723.2824
19	99571.6064
20	98895.0398
21	99331.4593
22	96849.4143
23	96263.4943
24	93992.4072
25	93740.12
26	99291.7358
27	112349.3837
28	120493.6407
29	122451.438
30	122949.7026
31	123464.1892
32	121439.9953
33	117673.8923
34	114892.0457
35	111536.077
36	108162.4466
37	105752.2386
38	103619.5454
39	101267.3222
40	99345.4497
41	96504.5792
42	95118.7102
43	93378.4171
44	92096.9932
45	93145.3502
46	91673.6692
47	90391.0576
48	90328.3622
49	89521.8688
50	89965.1455
51	90044.4578
52	90003.6086
53	90924.1373
54	92514.9547
55	93601.482
56	96293.7061
57	99949.1734
58	102143.6673
59	104005.7373
60	105335.6971
61	108716.8342
62	106483.2663
63	107633.9182
64	106282.1842
65	105243.9416
66	104133.0411
67	101448.1093
68	101036.0256
69	99948.3116
70	97472.4837
71	97047.0384
72	95295.61
73	93321.494
74	92817.1479
75	91630.9965
76	90027.5092
77	89191.5556
78	89952.23
79	88977.1859
80	88046.6888
81	89600.6412
82	88651.8914
83	89774.1596
84	88621.939
85	90517.3638
86	90918.9135
87	92133.8188
88	91385.7287
89	93182.5453
90	94868.8419
91	95744.6004
92	96634.2924
93	98743.3657
94	96683.7749
95	97525.7977
96	96670.1851
97	95722.2059
98	96544.8692
99	95433.2714
100	94192.3679
101	92971.0605
102	92235.1796
103	91454.3287
104	90315.1537
105	90383.3536
106	89148.6756
107	89034.9801
108	88881.187
109	88436.3824
110	88372.7114
111	87285.736
112	87365.3802
113	86751.831
114	87122.364
115	87011.1508
116	86618.4611
117	87805.8064
118	87731.9289
119	88916.4927
120	89656.7304
121	90849.5216
122	90382.0863
123	92603.0868
124	91860.5863
125	92616.9107
126	92736.7049
127	92615.1577
128	92595.6386
129	92162.0381
130	91367.329
131	90533.4034
132	90556.2832
133	90035.1868
134	89114.0853
135	89288.2675
136	88573.9785
137	87981.0691
138	87819.9304
139	87691.8359
140	86869.3406
141	86440.6249
142	86823.6138
143	86525.3149
144	85963.1516
145	86169.0944
146	84546.5525
147	85920.3632
148	85787.7366
149	85579.5277
150	87266.4731
151	86618.3048
152	86569.6501
153	87770.362
154	87430.8869
155	88250.6371
156	88751.1118
157	88956.2079
158	87520.0248
159	88388.5409
160	87214.8035
161	86839.0732
162	87909.7848
163	86117.1874
164	86192.3438
165	86311.8362
166	85185.9909
167	85914.5695
168	84472.6819
169	85072.9996
170	84578.6829
171	84206.1479
172	83934.2314
173	84160.9596
174	85225.7137
175	83806.0228
176	84791.636
177	84133.1934
178	84198.2815
179	84875.3256
180	84884.9632
181	84278.3036
182	83855.796
183	83941.6238
184	83083.8776
185	84925.8378
186	83955.1997
187	84324.2897
188	84304.619
189	84114.804
190	83744.1348
191	83485.261
192	83646.3871
193	84923.1733
194	83109.9511
195	83262.9149
196	83369.9979
197	83218.1004
198	83892.5558
199	82043.9431
200	40997.0653
