Position	Value
-200	9.8636
-199	20.4982
-198	28.5851
-197	29.4489
-196	32.3499
-195	26.6329
-194	34.632
-193	24.9958
-192	23.3325
-191	22.2889
-190	26.8353
-189	23.582
-188	21.7653
-187	30.3212
-186	22.1536
-185	27.4485
-184	27.5524
-183	19.3293
-182	25.8697
-181	22.1359
-180	23.307
-179	34.0221
-178	15.7268
-177	27.5167
-176	16.6225
-175	19.9895
-174	12.0427
-173	16.6585
-172	19.2361
-171	23.3642
-170	19.9178
-169	21.2839
-168	20.008
-167	24.6785
-166	18.2851
-165	34.5903
-164	40.544
-163	24.7662
-162	26.3316
-161	35.9637
-160	35.083
-159	36.1248
-158	33.4779
-157	19.681
-156	27.7466
-155	36.1935
-154	28.0176
-153	27.9702
-152	29.3968
-151	25.5612
-150	27.8594
-149	24.0186
-148	32.2915
-147	20.9762
-146	20.4485
-145	25.3481
-144	30.2001
-143	25.5917
-142	31.4651
-141	16.7321
-140	26.4934
-139	31.269
-138	23.7869
-137	32.9742
-136	35.5989
-135	26.1284
-134	21.076
-133	30.1797
-132	25.0989
-131	21.998
-130	28.7251
-129	20.338
-128	25.7276
-127	32.642
-126	30.68
-125	34.8776
-124	30.2611
-123	42.7685
-122	26.488
-121	29.6765
-120	28.9516
-119	29.2029
-118	23.6632
-117	31.2906
-116	27.3582
-115	25.0228
-114	21.4473
-113	23.9162
-112	18.3534
-111	29.2883
-110	28.2738
-109	19.9986
-108	17.4395
-107	29.0109
-106	19.5619
-105	20.4939
-104	44.6815
-103	25.3744
-102	25.047
-101	41.878
-100	31.5661
-99	23.8629
-98	30.413
-97	31.4304
-96	25.9133
-95	32.5007
-94	33.8534
-93	25.6839
-92	29.0694
-91	27.2212
-90	31.5473
-89	28.725
-88	24.7068
-87	28.5817
-86	25.8422
-85	31.8049
-84	36.0334
-83	27.1993
-82	20.317
-81	20.2692
-80	13.6408
-79	22.3593
-78	23.7933
-77	21.7551
-76	32.3656
-75	19.5415
-74	27.4454
-73	29.2205
-72	16.5258
-71	27.707
-70	24.032
-69	17.1913
-68	23.4322
-67	32.6964
-66	26.8767
-65	30.9309
-64	36.036
-63	29.8937
-62	20.5975
-61	37.2142
-60	33.8907
-59	39.9752
-58	24.7314
-57	26.1985
-56	34.2006
-55	22.1231
-54	36.425
-53	27.9997
-52	22.9154
-51	24.1414
-50	22.2264
-49	34.4316
-48	19.5835
-47	38.1519
-46	26.0143
-45	35.6743
-44	34.0628
-43	25.9954
-42	35.6532
-41	25.8996
-40	33.5631
-39	33.0246
-38	36.9024
-37	49.2885
-36	52.71
-35	61.1713
-34	90.1535
-33	51.2378
-32	50.4569
-31	46.2944
-30	57.9653
-29	55.5073
-28	59.8717
-27	36.9132
-26	39.5377
-25	22.4885
-24	30.1099
-23	33.0633
-22	33.424
-21	23.0182
-20	28.3706
-19	40.0508
-18	32.2485
-17	40.1259
-16	34.6816
-15	31.982
-14	42.5466
-13	39.7636
-12	45.479
-11	48.5047
-10	63.5048
-9	72.4559
-8	105.6237
-7	181.3744
-6	217.056
-5	297.096
-4	353.5761
-3	500.5649
-2	882.1251
-1	1308.775
0	21248.5657
1	1308.775
2	882.1251
3	500.5649
4	353.5761
5	297.096
6	217.056
7	181.3744
8	105.6237
9	72.4559
10	63.5048
11	48.5047
12	45.479
13	39.7636
14	42.5466
15	31.982
16	34.6816
17	40.1259
18	32.2485
19	40.0508
20	28.3706
21	23.0182
22	33.424
23	33.0633
24	30.1099
25	22.4885
26	39.5377
27	36.9132
28	59.8717
29	55.5073
30	57.9653
31	46.2944
32	50.4569
33	51.2378
34	90.1535
35	61.1713
36	52.71
37	49.2885
38	36.9024
39	33.0246
40	33.5631
41	25.8996
42	35.6532
43	25.9954
44	34.0628
45	35.6743
46	26.0143
47	38.1519
48	19.5835
49	34.4316
50	22.2264
51	24.1414
52	22.9154
53	27.9997
54	36.425
55	22.1231
56	34.2006
57	26.1985
58	24.7314
59	39.9752
60	33.8907
61	37.2142
62	20.5975
63	29.8937
64	36.036
65	30.9309
66	26.8767
67	32.6964
68	23.4322
69	17.1913
70	24.032
71	27.707
72	16.5258
73	29.2205
74	27.4454
75	19.5415
76	32.3656
77	21.7551
78	23.7933
79	22.3593
80	13.6408
81	20.2692
82	20.317
83	27.1993
84	36.0334
85	31.8049
86	25.8422
87	28.5817
88	24.7068
89	28.725
90	31.5473
91	27.2212
92	29.0694
93	25.6839
94	33.8534
95	32.5007
96	25.9133
97	31.4304
98	30.413
99	23.8629
100	31.5661
101	41.878
102	25.047
103	25.3744
104	44.6815
105	20.4939
106	19.5619
107	29.0109
108	17.4395
109	19.9986
110	28.2738
111	29.2883
112	18.3534
113	23.9162
114	21.4473
115	25.0228
116	27.3582
117	31.2906
118	23.6632
119	29.2029
120	28.9516
121	29.6765
122	26.488
123	42.7685
124	30.2611
125	34.8776
126	30.68
127	32.642
128	25.7276
129	20.338
130	28.7251
131	21.998
132	25.0989
133	30.1797
134	21.076
135	26.1284
136	35.5989
137	32.9742
138	23.7869
139	31.269
140	26.4934
141	16.7321
142	31.4651
143	25.5917
144	30.2001
145	25.3481
146	20.4485
147	20.9762
148	32.2915
149	24.0186
150	27.8594
151	25.5612
152	29.3968
153	27.9702
154	28.0176
155	36.1935
156	27.7466
157	19.681
158	33.4779
159	36.1248
160	35.083
161	35.9637
162	26.3316
163	24.7662
164	40.544
165	34.5903
166	18.2851
167	24.6785
168	20.008
169	21.2839
170	19.9178
171	23.3642
172	19.2361
173	16.6585
174	12.0427
175	19.9895
176	16.6225
177	27.5167
178	15.7268
179	34.0221
180	23.307
181	22.1359
182	25.8697
183	19.3293
184	27.5524
185	27.4485
186	22.1536
187	30.3212
188	21.7653
189	23.582
190	26.8353
191	22.2889
192	23.3325
193	24.9958
194	34.632
195	26.6329
196	32.3499
197	29.4489
198	28.5851
199	20.4982
200	9.8636
