Position	Value
-200	871.692
-199	1693.9894
-198	1580.8958
-197	1742.1392
-196	1662.1944
-195	1792.802
-194	1647.1617
-193	1810.451
-192	1727.0693
-191	1802.1097
-190	1818.1709
-189	1977.0568
-188	1860.3372
-187	1836.1086
-186	1824.0321
-185	2018.016
-184	2010.8587
-183	1803.4279
-182	1701.4754
-181	1792.9734
-180	1765.9749
-179	1805.866
-178	1809.7652
-177	1690.0865
-176	1749.9812
-175	1742.7857
-174	1716.664
-173	1775.0003
-172	1724.7954
-171	1657.0052
-170	1825.9115
-169	1797.3165
-168	1817.9207
-167	1770.0707
-166	1942.2184
-165	1931.3031
-164	1829.0331
-163	1809.6463
-162	1907.1182
-161	2010.17
-160	1910.4459
-159	2071.5221
-158	2003.6666
-157	2153.4312
-156	2169.9343
-155	2092.471
-154	2050.7741
-153	2061.6597
-152	2043.8334
-151	2034.1297
-150	1976.6713
-149	2088.9019
-148	1787.8826
-147	2052.1128
-146	1832.8611
-145	1902.9705
-144	2000.6885
-143	2029.7902
-142	1965.4474
-141	2016.182
-140	1935.6729
-139	2133.3693
-138	2012.639
-137	1981.3375
-136	2143.6959
-135	2080.6009
-134	2196.5894
-133	2142.2342
-132	2135.2054
-131	2127.718
-130	2205.3077
-129	2191.0867
-128	2270.7271
-127	2295.2733
-126	2421.781
-125	2484.2568
-124	2307.3579
-123	2318.2025
-122	2401.6883
-121	2359.186
-120	2247.6519
-119	2305.2843
-118	2050.0632
-117	2217.4187
-116	2106.2593
-115	2014.8793
-114	2004.0853
-113	2060.876
-112	2118.5436
-111	2218.9914
-110	2150.29
-109	2235.6829
-108	2122.7389
-107	2127.5444
-106	2126.4985
-105	2332.997
-104	2247.2434
-103	2312.4531
-102	2374.4017
-101	2402.8331
-100	2582.895
-99	2822.1599
-98	2736.316
-97	2666.8916
-96	2862.6484
-95	3053.6918
-94	2910.4047
-93	2944.1246
-92	3038.2593
-91	2826.0401
-90	2641.5897
-89	2645.1896
-88	2488.6897
-87	2526.2016
-86	2374.2329
-85	2409.6758
-84	2127.6639
-83	2173.9562
-82	2109.7246
-81	2130.33
-80	2160.4527
-79	2125.7948
-78	2278.8897
-77	2292.5653
-76	2281.7774
-75	2409.1689
-74	2495.9578
-73	2602.9355
-72	2607.7009
-71	2814.2426
-70	2966.656
-69	3115.8085
-68	3132.8898
-67	3421.5974
-66	3637.4114
-65	3607.7817
-64	3715.953
-63	3596.3122
-62	3821.0285
-61	4146.2118
-60	3816.6059
-59	3688.5698
-58	3643.3586
-57	3231.3713
-56	2990.7505
-55	3028.9844
-54	2641.6217
-53	2528.0207
-52	2545.9552
-51	2562.3008
-50	2603.6664
-49	2545.1489
-48	2625.9281
-47	2610.7816
-46	2535.1074
-45	2741.9659
-44	2824.9267
-43	2732.4199
-42	2941.803
-41	3107.621
-40	3416.5254
-39	3214.5481
-38	3586.1675
-37	3756.2599
-36	4336.4497
-35	5043.4645
-34	4724.2867
-33	5188.4591
-32	5267.0471
-31	5171.0898
-30	5563.3706
-29	5619.6666
-28	4753.0547
-27	4301.2154
-26	4161.5765
-25	3841.6025
-24	3692.3875
-23	3536.4419
-22	3759.9616
-21	3679.3116
-20	3569.265
-19	3706.2153
-18	4045.5544
-17	4084.3753
-16	4229.9393
-15	4228.6421
-14	4497.7843
-13	4620.3379
-12	5319.6204
-11	5818.2771
-10	6165.6693
-9	7113.6599
-8	7425.4694
-7	8517.8258
-6	9245.1565
-5	11126.3849
-4	12255.4181
-3	14304.661
-2	15893.5226
-1	18031.5913
0	92659.1242
1	18031.5913
2	15893.5226
3	14304.661
4	12255.4181
5	11126.3849
6	9245.1565
7	8517.8258
8	7425.4694
9	7113.6599
10	6165.6693
11	5818.2771
12	5319.6204
13	4620.3379
14	4497.7843
15	4228.6421
16	4229.9393
17	4084.3753
18	4045.5544
19	3706.2153
20	3569.265
21	3679.3116
22	3759.9616
23	3536.4419
24	3692.3875
25	3841.6025
26	4161.5765
27	4301.2154
28	4753.0547
29	5619.6666
30	5563.3706
31	5171.0898
32	5267.0471
33	5188.4591
34	4724.2867
35	5043.4645
36	4336.4497
37	3756.2599
38	3586.1675
39	3214.5481
40	3416.5254
41	3107.621
42	2941.803
43	2732.4199
44	2824.9267
45	2741.9659
46	2535.1074
47	2610.7816
48	2625.9281
49	2545.1489
50	2603.6664
51	2562.3008
52	2545.9552
53	2528.0207
54	2641.6217
55	3028.9844
56	2990.7505
57	3231.3713
58	3643.3586
59	3688.5698
60	3816.6059
61	4146.2118
62	3821.0285
63	3596.3122
64	3715.953
65	3607.7817
66	3637.4114
67	3421.5974
68	3132.8898
69	3115.8085
70	2966.656
71	2814.2426
72	2607.7009
73	2602.9355
74	2495.9578
75	2409.1689
76	2281.7774
77	2292.5653
78	2278.8897
79	2125.7948
80	2160.4527
81	2130.33
82	2109.7246
83	2173.9562
84	2127.6639
85	2409.6758
86	2374.2329
87	2526.2016
88	2488.6897
89	2645.1896
90	2641.5897
91	2826.0401
92	3038.2593
93	2944.1246
94	2910.4047
95	3053.6918
96	2862.6484
97	2666.8916
98	2736.316
99	2822.1599
100	2582.895
101	2402.8331
102	2374.4017
103	2312.4531
104	2247.2434
105	2332.997
106	2126.4985
107	2127.5444
108	2122.7389
109	2235.6829
110	2150.29
111	2218.9914
112	2118.5436
113	2060.876
114	2004.0853
115	2014.8793
116	2106.2593
117	2217.4187
118	2050.0632
119	2305.2843
120	2247.6519
121	2359.186
122	2401.6883
123	2318.2025
124	2307.3579
125	2484.2568
126	2421.781
127	2295.2733
128	2270.7271
129	2191.0867
130	2205.3077
131	2127.718
132	2135.2054
133	2142.2342
134	2196.5894
135	2080.6009
136	2143.6959
137	1981.3375
138	2012.639
139	2133.3693
140	1935.6729
141	2016.182
142	1965.4474
143	2029.7902
144	2000.6885
145	1902.9705
146	1832.8611
147	2052.1128
148	1787.8826
149	2088.9019
150	1976.6713
151	2034.1297
152	2043.8334
153	2061.6597
154	2050.7741
155	2092.471
156	2169.9343
157	2153.4312
158	2003.6666
159	2071.5221
160	1910.4459
161	2010.17
162	1907.1182
163	1809.6463
164	1829.0331
165	1931.3031
166	1942.2184
167	1770.0707
168	1817.9207
169	1797.3165
170	1825.9115
171	1657.0052
172	1724.7954
173	1775.0003
174	1716.664
175	1742.7857
176	1749.9812
177	1690.0865
178	1809.7652
179	1805.866
180	1765.9749
181	1792.9734
182	1701.4754
183	1803.4279
184	2010.8587
185	2018.016
186	1824.0321
187	1836.1086
188	1860.3372
189	1977.0568
190	1818.1709
191	1802.1097
192	1727.0693
193	1810.451
194	1647.1617
195	1792.802
196	1662.1944
197	1742.1392
198	1580.8958
199	1693.9894
200	871.692
