Position	Value
-200	14477.4512
-199	28798.2185
-198	28861.1355
-197	29023.5028
-196	29046.0445
-195	28798.1698
-194	28914.2742
-193	29148.8659
-192	29018.9014
-191	28976.7349
-190	28954.0449
-189	29232.3303
-188	29028.1479
-187	29431.4225
-186	29499.5383
-185	29045.7475
-184	29411.0838
-183	29269.2997
-182	29253.0952
-181	29368.2117
-180	29571.6157
-179	29380.8365
-178	29319.7178
-177	29215.5393
-176	29706.1146
-175	29734.2549
-174	30142.0371
-173	29857.2808
-172	29730.2758
-171	29798.432
-170	29555.9542
-169	29605.25
-168	29513.7695
-167	29355.723
-166	29127.1953
-165	29444.3509
-164	29463.642
-163	30001.7038
-162	30687.7963
-161	30376.7712
-160	30603.6581
-159	30676.893
-158	30440.0225
-157	30394.6755
-156	30311.4694
-155	30120.7239
-154	30152.8662
-153	30716.7278
-152	30741.2133
-151	30569.8438
-150	30764.9197
-149	30977.2689
-148	30875.9878
-147	30971.2151
-146	30691.5218
-145	31105.1836
-144	31300.7274
-143	31107.8582
-142	31271.8255
-141	31267.127
-140	31431.5145
-139	31302.3098
-138	31546.7172
-137	31295.8716
-136	31784.7041
-135	32294.9389
-134	32077.4484
-133	32178.3696
-132	32370.2144
-131	32418.8894
-130	32204.8064
-129	32084.6827
-128	32722.73
-127	32175.7145
-126	32662.6902
-125	31996.3434
-124	32250.8681
-123	32473.5543
-122	32018.8431
-121	32178.004
-120	32025.1359
-119	32062.6918
-118	31847.3158
-117	31860.4296
-116	31666.4097
-115	31957.8423
-114	32080.644
-113	32056.3391
-112	31970.7989
-111	32110.6477
-110	32325.8409
-109	31928.9555
-108	32194.8005
-107	32262.6255
-106	32941.3851
-105	32916.7473
-104	32926.8929
-103	32997.1705
-102	33224.5221
-101	33069.1968
-100	32968.0687
-99	34026.826
-98	34086.4429
-97	33586.9834
-96	34077.4138
-95	34217.1097
-94	34309.4563
-93	35074.2821
-92	34906.819
-91	34579.0898
-90	34817.4035
-89	35172.6902
-88	35186.5988
-87	35636.4671
-86	35328.1292
-85	35212.546
-84	35585.4261
-83	35369.411
-82	35151.0121
-81	34902.1583
-80	34865.8566
-79	34760.7519
-78	35288.1204
-77	35294.8398
-76	35692.0392
-75	36021.3447
-74	35518.6854
-73	35739.8094
-72	36055.8515
-71	35978.3117
-70	35886.3872
-69	36765.1671
-68	36092.4433
-67	35965.2194
-66	36582.3657
-65	36498.1484
-64	36888.7774
-63	37069.3102
-62	37567.8648
-61	38373.0671
-60	38452.585
-59	38450.4225
-58	37846.297
-57	38566.7579
-56	37828.0636
-55	38494.5219
-54	38776.3853
-53	38583.78
-52	39225.2421
-51	39276.1474
-50	39125.3333
-49	38860.9017
-48	39435.2349
-47	39443.9344
-46	40002.2874
-45	40144.6127
-44	39986.4079
-43	39598.6659
-42	40340.9161
-41	40383.4141
-40	40458.0628
-39	41769.5235
-38	41521.1765
-37	41950.2495
-36	42515.6722
-35	43512.0528
-34	43808.7418
-33	44738.5579
-32	45485.8227
-31	45987.7181
-30	47161.0323
-29	48128.0347
-28	48823.5282
-27	49289.5787
-26	47518.7291
-25	45989.8954
-24	44606.4365
-23	42365.1883
-22	40766.6554
-21	41107.2527
-20	41268.7322
-19	41985.576
-18	43350.4272
-17	44089.7458
-16	45318.0088
-15	46779.0446
-14	48586.5954
-13	51560.1963
-12	56454.8574
-11	60209.1932
-10	65427.3867
-9	73228.6744
-8	79703.2468
-7	89126.0786
-6	100084.0762
-5	113317.3025
-4	133536.5293
-3	159429.3413
-2	181418.0543
-1	225675.6519
0	607700.2526
1	225675.6519
2	181418.0543
3	159429.3413
4	133536.5293
5	113317.3025
6	100084.0762
7	89126.0786
8	79703.2468
9	73228.6744
10	65427.3867
11	60209.1932
12	56454.8574
13	51560.1963
14	48586.5954
15	46779.0446
16	45318.0088
17	44089.7458
18	43350.4272
19	41985.576
20	41268.7322
21	41107.2527
22	40766.6554
23	42365.1883
24	44606.4365
25	45989.8954
26	47518.7291
27	49289.5787
28	48823.5282
29	48128.0347
30	47161.0323
31	45987.7181
32	45485.8227
33	44738.5579
34	43808.7418
35	43512.0528
36	42515.6722
37	41950.2495
38	41521.1765
39	41769.5235
40	40458.0628
41	40383.4141
42	40340.9161
43	39598.6659
44	39986.4079
45	40144.6127
46	40002.2874
47	39443.9344
48	39435.2349
49	38860.9017
50	39125.3333
51	39276.1474
52	39225.2421
53	38583.78
54	38776.3853
55	38494.5219
56	37828.0636
57	38566.7579
58	37846.297
59	38450.4225
60	38452.585
61	38373.0671
62	37567.8648
63	37069.3102
64	36888.7774
65	36498.1484
66	36582.3657
67	35965.2194
68	36092.4433
69	36765.1671
70	35886.3872
71	35978.3117
72	36055.8515
73	35739.8094
74	35518.6854
75	36021.3447
76	35692.0392
77	35294.8398
78	35288.1204
79	34760.7519
80	34865.8566
81	34902.1583
82	35151.0121
83	35369.411
84	35585.4261
85	35212.546
86	35328.1292
87	35636.4671
88	35186.5988
89	35172.6902
90	34817.4035
91	34579.0898
92	34906.819
93	35074.2821
94	34309.4563
95	34217.1097
96	34077.4138
97	33586.9834
98	34086.4429
99	34026.826
100	32968.0687
101	33069.1968
102	33224.5221
103	32997.1705
104	32926.8929
105	32916.7473
106	32941.3851
107	32262.6255
108	32194.8005
109	31928.9555
110	32325.8409
111	32110.6477
112	31970.7989
113	32056.3391
114	32080.644
115	31957.8423
116	31666.4097
117	31860.4296
118	31847.3158
119	32062.6918
120	32025.1359
121	32178.004
122	32018.8431
123	32473.5543
124	32250.8681
125	31996.3434
126	32662.6902
127	32175.7145
128	32722.73
129	32084.6827
130	32204.8064
131	32418.8894
132	32370.2144
133	32178.3696
134	32077.4484
135	32294.9389
136	31784.7041
137	31295.8716
138	31546.7172
139	31302.3098
140	31431.5145
141	31267.127
142	31271.8255
143	31107.8582
144	31300.7274
145	31105.1836
146	30691.5218
147	30971.2151
148	30875.9878
149	30977.2689
150	30764.9197
151	30569.8438
152	30741.2133
153	30716.7278
154	30152.8662
155	30120.7239
156	30311.4694
157	30394.6755
158	30440.0225
159	30676.893
160	30603.6581
161	30376.7712
162	30687.7963
163	30001.7038
164	29463.642
165	29444.3509
166	29127.1953
167	29355.723
168	29513.7695
169	29605.25
170	29555.9542
171	29798.432
172	29730.2758
173	29857.2808
174	30142.0371
175	29734.2549
176	29706.1146
177	29215.5393
178	29319.7178
179	29380.8365
180	29571.6157
181	29368.2117
182	29253.0952
183	29269.2997
184	29411.0838
185	29045.7475
186	29499.5383
187	29431.4225
188	29028.1479
189	29232.3303
190	28954.0449
191	28976.7349
192	29018.9014
193	29148.8659
194	28914.2742
195	28798.1698
196	29046.0445
197	29023.5028
198	28861.1355
199	28798.2185
200	14477.4512
