Position	Value
-200	82955.785
-199	165062.4179
-198	165868.5433
-197	165626.1378
-196	164670.3542
-195	164768.135
-194	164405.3947
-193	164950.4199
-192	164670.7818
-191	164403.5367
-190	162830.8855
-189	163225.1541
-188	162523.7454
-187	161807.1733
-186	162357.0924
-185	162102.7682
-184	162096.8444
-183	163309.1048
-182	162558.9316
-181	162082.4677
-180	163158.406
-179	162920.025
-178	162920.7972
-177	163601.6234
-176	162918.9807
-175	161985.1246
-174	162296.1697
-173	162697.1891
-172	162876.5405
-171	164238.8563
-170	164452.4292
-169	165458.7311
-168	166453.8236
-167	167266.7582
-166	167485.6591
-165	170123.5519
-164	169824.995
-163	170946.3828
-162	171951.1371
-161	172579.6071
-160	172016.4423
-159	172342.021
-158	172066.7672
-157	172272.1507
-156	172979.8296
-155	172824.5656
-154	172287.5974
-153	172505.3128
-152	172519.3419
-151	171812.0439
-150	172913.9745
-149	172597.4965
-148	173316.2476
-147	174416.9243
-146	174708.8806
-145	174917.846
-144	175735.6478
-143	176265.65
-142	176368.1981
-141	177275.216
-140	178257.9926
-139	179541.7453
-138	181481.8065
-137	181418.6838
-136	182798.0581
-135	183365.8005
-134	183256.9425
-133	182732.7148
-132	183172.5906
-131	182602.3366
-130	181810.4871
-129	181285.5851
-128	180926.047
-127	180806.3814
-126	182100.08
-125	180698.9466
-124	181572.5697
-123	182910.5832
-122	183577.4303
-121	182587.2974
-120	183573.8541
-119	183452.0887
-118	182988.1308
-117	183599.9594
-116	184029.7442
-115	184230.4403
-114	185439.6388
-113	184362.2276
-112	185188.8512
-111	185709.841
-110	185745.4465
-109	186272.8945
-108	187121.8995
-107	185928.4279
-106	186144.2249
-105	187124.345
-104	186799.5566
-103	187598.5076
-102	187983.0687
-101	186833.6505
-100	187608.5743
-99	188613.6169
-98	188520.5682
-97	188397.6469
-96	189477.7261
-95	189746.8199
-94	189650.4844
-93	190503.5592
-92	190252.019
-91	190398.9877
-90	191934.1254
-89	192266.1248
-88	192955.8829
-87	194335.6874
-86	195490.9624
-85	196130.9509
-84	197578.3272
-83	197719.3974
-82	198499.3729
-81	199779.4292
-80	201147.4654
-79	202561.1441
-78	203408.9109
-77	204095.8891
-76	204246.765
-75	205636.7857
-74	205448.3197
-73	204654.253
-72	205113.1708
-71	205257.2157
-70	205824.504
-69	206805.3429
-68	206698.9236
-67	207284.5574
-66	208063.0168
-65	208838.0721
-64	208943.1073
-63	209110.4905
-62	209652.9607
-61	210544.3493
-60	212192.022
-59	213141.0973
-58	214831.9153
-57	216243.3832
-56	216945.8481
-55	217019.2054
-54	218900.4003
-53	219355.875
-52	220299.4018
-51	220752.0884
-50	221265.2615
-49	221952.2964
-48	223792.8691
-47	224533.5743
-46	226263.959
-45	228570.4069
-44	228932.2888
-43	230010.5186
-42	231943.9357
-41	232657.0329
-40	234252.3055
-39	236399.8055
-38	238487.8057
-37	240223.9086
-36	244320.1256
-35	245615.5904
-34	247931.5159
-33	251502.0874
-32	253839.4538
-31	255637.6422
-30	257473.5951
-29	256245.0752
-28	254151.3502
-27	253560.1671
-26	251278.7727
-25	252354.8746
-24	251291.4908
-23	249328.1913
-22	250641.3683
-21	254707.8387
-20	257830.084
-19	262470.2302
-18	270413.6039
-17	276819.4631
-16	285365.5231
-15	295749.2876
-14	307881.2401
-13	323597.3873
-12	342570.9062
-11	362894.5181
-10	385699.2712
-9	416121.3579
-8	447575.2627
-7	487232.8683
-6	533833.2329
-5	588129.1176
-4	656200.498
-3	728711.6433
-2	799611.1414
-1	926633.2524
0	2081013.6966
1	926633.2524
2	799611.1414
3	728711.6432
4	656200.498
5	588129.1176
6	533833.2329
7	487232.8683
8	447575.2627
9	416121.3579
10	385699.2712
11	362894.5181
12	342570.9062
13	323597.3873
14	307881.2401
15	295749.2876
16	285365.5231
17	276819.4631
18	270413.6039
19	262470.2302
20	257830.084
21	254707.8387
22	250641.3683
23	249328.1913
24	251291.4908
25	252354.8746
26	251278.7727
27	253560.1671
28	254151.3502
29	256245.0752
30	257473.5951
31	255637.6422
32	253839.4538
33	251502.0874
34	247931.5159
35	245615.5904
36	244320.1256
37	240223.9086
38	238487.8057
39	236399.8055
40	234252.3055
41	232657.0329
42	231943.9357
43	230010.5186
44	228932.2888
45	228570.4069
46	226263.959
47	224533.5743
48	223792.8691
49	221952.2964
50	221265.2615
51	220752.0884
52	220299.4018
53	219355.875
54	218900.4003
55	217019.2054
56	216945.8481
57	216243.3832
58	214831.9153
59	213141.0973
60	212192.022
61	210544.3493
62	209652.9607
63	209110.4905
64	208943.1073
65	208838.0721
66	208063.0168
67	207284.5574
68	206698.9236
69	206805.3429
70	205824.504
71	205257.2157
72	205113.1708
73	204654.253
74	205448.3197
75	205636.7857
76	204246.765
77	204095.8891
78	203408.9109
79	202561.1441
80	201147.4654
81	199779.4292
82	198499.3729
83	197719.3974
84	197578.3272
85	196130.9509
86	195490.9624
87	194335.6874
88	192955.8829
89	192266.1248
90	191934.1254
91	190398.9877
92	190252.019
93	190503.5592
94	189650.4844
95	189746.8199
96	189477.7261
97	188397.6469
98	188520.5682
99	188613.6169
100	187608.5743
101	186833.6505
102	187983.0687
103	187598.5076
104	186799.5566
105	187124.345
106	186144.2249
107	185928.4279
108	187121.8995
109	186272.8945
110	185745.4465
111	185709.841
112	185188.8512
113	184362.2276
114	185439.6388
115	184230.4403
116	184029.7442
117	183599.9594
118	182988.1308
119	183452.0887
120	183573.8541
121	182587.2974
122	183577.4303
123	182910.5832
124	181572.5697
125	180698.9466
126	182100.08
127	180806.3814
128	180926.047
129	181285.5851
130	181810.4871
131	182602.3366
132	183172.5906
133	182732.7148
134	183256.9425
135	183365.8005
136	182798.0581
137	181418.6838
138	181481.8065
139	179541.7453
140	178257.9926
141	177275.216
142	176368.1981
143	176265.65
144	175735.6478
145	174917.846
146	174708.8806
147	174416.9243
148	173316.2476
149	172597.4965
150	172913.9745
151	171812.0439
152	172519.3419
153	172505.3128
154	172287.5974
155	172824.5656
156	172979.8296
157	172272.1507
158	172066.7672
159	172342.021
160	172016.4423
161	172579.6071
162	171951.1371
163	170946.3828
164	169824.995
165	170123.5519
166	167485.6591
167	167266.7582
168	166453.8236
169	165458.7311
170	164452.4292
171	164238.8563
172	162876.5405
173	162697.1891
174	162296.1697
175	161985.1246
176	162918.9807
177	163601.6234
178	162920.7972
179	162920.025
180	163158.406
181	162082.4677
182	162558.9316
183	163309.1048
184	162096.8444
185	162102.7682
186	162357.0924
187	161807.1733
188	162523.7454
189	163225.1541
190	162830.8855
191	164403.5367
192	164670.7818
193	164950.4199
194	164405.3947
195	164768.135
196	164670.3542
197	165626.1378
198	165868.5433
199	165062.4179
200	82955.785
