Position	Value
-200	18479.3095
-199	37964.4042
-198	38495.2605
-197	38012.6827
-196	38849.7732
-195	38235.0211
-194	38834.4605
-193	39101.0027
-192	38727.0439
-191	38583.8192
-190	39258.2757
-189	39029.2338
-188	39171.5999
-187	39404.4455
-186	39334.7715
-185	39789.8248
-184	40298.822
-183	39415.856
-182	39314.1633
-181	39400.7075
-180	39363.0181
-179	39967.2615
-178	39632.1306
-177	39154.7808
-176	39850.5974
-175	39186.6906
-174	39235.3745
-173	39582.9796
-172	39440.1889
-171	39851.2963
-170	38867.8268
-169	39607.0208
-168	39344.0296
-167	39088.9388
-166	40255.1652
-165	40738.9662
-164	39681.049
-163	41579.8829
-162	41098.1729
-161	40683.3036
-160	40640.9614
-159	41327.0579
-158	41183.9917
-157	41019.5883
-156	42160.7675
-155	41380.2814
-154	41427.4034
-153	40938.6774
-152	41606.9564
-151	41233.3606
-150	41784.4687
-149	40264.0158
-148	40465.4425
-147	40828.5612
-146	40174.3629
-145	40792.4013
-144	40730.7135
-143	41145.9039
-142	41112.3355
-141	40898.5291
-140	40796.2965
-139	41160.2709
-138	41379.0787
-137	41212.4271
-136	41785.1754
-135	41824.6093
-134	42134.8605
-133	41764.5624
-132	43794.3279
-131	43461.4177
-130	42946.5789
-129	42802.0037
-128	43747.4261
-127	44583.8348
-126	44974.5665
-125	43830.8768
-124	44337.9779
-123	44567.6669
-122	44810.0392
-121	44212.451
-120	43968.3043
-119	43946.9371
-118	43413.6661
-117	43028.8264
-116	42692.9083
-115	43656.1366
-114	42704.2773
-113	41609.1347
-112	42102.903
-111	42752.4933
-110	42687.4478
-109	42062.4873
-108	41987.7896
-107	43496.4958
-106	42234.9032
-105	43194.0275
-104	43751.5285
-103	44340.0826
-102	44873.2725
-101	44669.8235
-100	46317.4179
-99	45960.5975
-98	46904.095
-97	47072.4106
-96	47590.0917
-95	48848.6341
-94	47381.1292
-93	49571.0899
-92	48060.1783
-91	47969.7962
-90	48186.9051
-89	45923.2952
-88	46277.8827
-87	45787.9644
-86	45578.7144
-85	45725.4578
-84	45269.9853
-83	44068.1801
-82	44857.8333
-81	45352.7926
-80	44513.3664
-79	44751.2425
-78	45514.1677
-77	44766.8238
-76	46194.3288
-75	45227.127
-74	44799.6976
-73	47961.418
-72	46199.058
-71	47929.4222
-70	48382.5344
-69	49982.4303
-68	49543.5388
-67	51090.7978
-66	52255.6952
-65	51708.2583
-64	54105.8237
-63	53766.205
-62	53498.3604
-61	55305.8072
-60	54467.9122
-59	52400.6052
-58	51996.3495
-57	51151.4519
-56	50152.8504
-55	48850.5851
-54	49146.1191
-53	48109.9483
-52	47925.9801
-51	47483.3656
-50	48577.9219
-49	46964.4387
-48	48604.2818
-47	48221.3973
-46	47457.1883
-45	47744.5823
-44	47326.858
-43	49570.8493
-42	49457.7454
-41	49984.3459
-40	51081.6526
-39	52091.6467
-38	52295.3664
-37	54265.865
-36	55623.9564
-35	56950.9739
-34	57876.6151
-33	60061.1307
-32	61112.3014
-31	61611.0237
-30	64837.6872
-29	63911.1426
-28	58529.091
-27	56893.1009
-26	54453.5277
-25	54311.6507
-24	55578.8571
-23	56769.8551
-22	56163.3061
-21	57324.7251
-20	57587.5797
-19	58206.8207
-18	60779.1486
-17	59830.79
-16	61347.176
-15	61617.7877
-14	63661.6548
-13	64574.8029
-12	69361.4934
-11	70956.0963
-10	73294.0965
-9	79475.7167
-8	79353.8479
-7	84670.5449
-6	84994.8142
-5	95819.078
-4	96086.9657
-3	102487.1563
-2	92126.5226
-1	87115.9205
0	536103.0117
1	87115.9205
2	92126.5226
3	102487.1563
4	96086.9657
5	95819.078
6	84994.8142
7	84670.5449
8	79353.8479
9	79475.7167
10	73294.0965
11	70956.0963
12	69361.4934
13	64574.8029
14	63661.6548
15	61617.7877
16	61347.176
17	59830.79
18	60779.1486
19	58206.8207
20	57587.5797
21	57324.7251
22	56163.3061
23	56769.8551
24	55578.8571
25	54311.6507
26	54453.5277
27	56893.1009
28	58529.091
29	63911.1426
30	64837.6872
31	61611.0237
32	61112.3014
33	60061.1307
34	57876.6151
35	56950.9739
36	55623.9564
37	54265.865
38	52295.3664
39	52091.6467
40	51081.6526
41	49984.3459
42	49457.7454
43	49570.8493
44	47326.858
45	47744.5823
46	47457.1883
47	48221.3973
48	48604.2818
49	46964.4387
50	48577.9219
51	47483.3656
52	47925.9801
53	48109.9483
54	49146.1191
55	48850.5851
56	50152.8504
57	51151.4519
58	51996.3495
59	52400.6052
60	54467.9122
61	55305.8072
62	53498.3604
63	53766.205
64	54105.8237
65	51708.2583
66	52255.6952
67	51090.7978
68	49543.5388
69	49982.4303
70	48382.5344
71	47929.4222
72	46199.058
73	47961.418
74	44799.6976
75	45227.127
76	46194.3288
77	44766.8238
78	45514.1677
79	44751.2425
80	44513.3664
81	45352.7926
82	44857.8333
83	44068.1801
84	45269.9853
85	45725.4578
86	45578.7144
87	45787.9644
88	46277.8827
89	45923.2952
90	48186.9051
91	47969.7962
92	48060.1783
93	49571.0899
94	47381.1292
95	48848.6341
96	47590.0917
97	47072.4106
98	46904.095
99	45960.5975
100	46317.4179
101	44669.8235
102	44873.2725
103	44340.0826
104	43751.5285
105	43194.0275
106	42234.9032
107	43496.4958
108	41987.7896
109	42062.4873
110	42687.4478
111	42752.4933
112	42102.903
113	41609.1347
114	42704.2773
115	43656.1366
116	42692.9083
117	43028.8264
118	43413.6661
119	43946.9371
120	43968.3043
121	44212.451
122	44810.0392
123	44567.6669
124	44337.9779
125	43830.8768
126	44974.5665
127	44583.8348
128	43747.4261
129	42802.0037
130	42946.5789
131	43461.4177
132	43794.3279
133	41764.5624
134	42134.8605
135	41824.6093
136	41785.1754
137	41212.4271
138	41379.0787
139	41160.2709
140	40796.2965
141	40898.5291
142	41112.3355
143	41145.9039
144	40730.7135
145	40792.4013
146	40174.3629
147	40828.5612
148	40465.4425
149	40264.0158
150	41784.4687
151	41233.3606
152	41606.9564
153	40938.6774
154	41427.4034
155	41380.2814
156	42160.7675
157	41019.5883
158	41183.9917
159	41327.0579
160	40640.9614
161	40683.3036
162	41098.1729
163	41579.8829
164	39681.049
165	40738.9662
166	40255.1652
167	39088.9388
168	39344.0296
169	39607.0208
170	38867.8268
171	39851.2963
172	39440.1889
173	39582.9796
174	39235.3745
175	39186.6906
176	39850.5974
177	39154.7808
178	39632.1306
179	39967.2615
180	39363.0181
181	39400.7075
182	39314.1633
183	39415.856
184	40298.822
185	39789.8248
186	39334.7715
187	39404.4455
188	39171.5999
189	39029.2338
190	39258.2757
191	38583.8192
192	38727.0439
193	39101.0027
194	38834.4605
195	38235.0211
196	38849.7732
197	38012.6827
198	38495.2605
199	37964.4042
200	18479.3095
