Position	Value
-200	43028.6766
-199	86347.5456
-198	87617.1607
-197	87482.4209
-196	86946.2591
-195	87431.3728
-194	87925.344
-193	88176.234
-192	87638.6604
-191	87980.2239
-190	87428.1973
-189	88479.5892
-188	88509.3965
-187	87882.5879
-186	88532.172
-185	88397.3287
-184	89548.2211
-183	89098.1282
-182	88934.3195
-181	88569.7202
-180	88493.89
-179	89384.1133
-178	88668.904
-177	88571.7297
-176	88917.0141
-175	89461.8408
-174	89332.7147
-173	89335.9033
-172	89378.2306
-171	89377.9152
-170	89346.3613
-169	90601.2547
-168	89628.3719
-167	90879.0821
-166	89576.3828
-165	92142.7522
-164	90929.1348
-163	92031.1272
-162	92888.4253
-161	91924.2637
-160	92530.0703
-159	92754.8714
-158	93561.5287
-157	92902.0089
-156	94553.5156
-155	92852.1282
-154	93813.0339
-153	93646.9765
-152	93775.1124
-151	94179.74
-150	93915.9254
-149	94177.8146
-148	91992.7889
-147	93191.7629
-146	92036.449
-145	91728.8817
-144	93248.2263
-143	94001.5229
-142	93587.1179
-141	93233.5039
-140	94311.1117
-139	93361.7613
-138	94885.7283
-137	94689.0841
-136	94153.3298
-135	96192.3518
-134	95703.2639
-133	95457.0453
-132	97699.1168
-131	96994.3174
-130	96949.6992
-129	97910.9009
-128	97846.2788
-127	98846.509
-126	99613.715
-125	98977.1287
-124	98975.1336
-123	99267.097
-122	98065.9608
-121	98928.254
-120	97797.3371
-119	97275.945
-118	96256.1627
-117	96423.0266
-116	95751.5987
-115	94897.7944
-114	95399.4042
-113	95016.0113
-112	95952.6073
-111	97071.2975
-110	96702.367
-109	96745.1224
-108	97081.2988
-107	97602.2929
-106	97898.2621
-105	98891.4685
-104	99262.9344
-103	101543.1096
-102	102539.6679
-101	102128.7116
-100	103319.062
-99	104633.9806
-98	105910.1238
-97	106236.8876
-96	106458.4409
-95	106974.3433
-94	106278.7311
-93	107570.222
-92	107330.4606
-91	107327.2857
-90	106215.8001
-89	104712.9192
-88	103112.9175
-87	104105.0981
-86	103217.3161
-85	102573.8079
-84	102378.1647
-83	100973.6657
-82	101529.8575
-81	102823.9745
-80	102217.3308
-79	100405.3065
-78	102305.0124
-77	101222.7222
-76	102538.5728
-75	102943.9235
-74	103485.6069
-73	105006.0174
-72	105873.853
-71	108083.4431
-70	108172.9243
-69	112281.4029
-68	111898.8102
-67	113238.1568
-66	117080.8329
-65	116494.4982
-64	118484.4254
-63	118605.0096
-62	119389.6973
-61	120703.2596
-60	119259.5065
-59	116915.985
-58	116126.4029
-57	115279.4078
-56	111556.1194
-55	111205.8472
-54	111569.0857
-53	110321.3512
-52	110207.1304
-51	109862.2453
-50	111279.3563
-49	108901.9638
-48	109788.7152
-47	110370.4986
-46	109903.1522
-45	112590.1784
-44	110623.1399
-43	112806.6823
-42	115434.5862
-41	116709.2451
-40	117624.5174
-39	120213.5428
-38	122037.1577
-37	125542.0645
-36	127594.065
-35	131853.9617
-34	131911.5855
-33	136864.6159
-32	139894.5208
-31	140213.0494
-30	144074.6422
-29	138176.0072
-28	130857.6234
-27	129249.5741
-26	127340.518
-25	126505.7528
-24	130330.4421
-23	132623.0793
-22	136969.4727
-21	140037.2507
-20	142416.2805
-19	144266.5344
-18	149500.2088
-17	149880.1325
-16	153793.1118
-15	158048.8302
-14	160364.245
-13	167126.9796
-12	177536.06
-11	183196.2479
-10	188543.6657
-9	203849.4967
-8	207846.3275
-7	223161.0204
-6	233810.3733
-5	266937.655
-4	275501.7732
-3	308585.5352
-2	303370.9869
-1	304861.8789
0	1259157.494
1	304861.8789
2	303370.9869
3	308585.5352
4	275501.7732
5	266937.655
6	233810.3733
7	223161.0204
8	207846.3275
9	203849.4967
10	188543.6657
11	183196.2479
12	177536.06
13	167126.9796
14	160364.245
15	158048.8302
16	153793.1118
17	149880.1325
18	149500.2088
19	144266.5344
20	142416.2805
21	140037.2507
22	136969.4727
23	132623.0793
24	130330.4421
25	126505.7528
26	127340.518
27	129249.5741
28	130857.6234
29	138176.0072
30	144074.6422
31	140213.0494
32	139894.5208
33	136864.6159
34	131911.5855
35	131853.9617
36	127594.065
37	125542.0645
38	122037.1577
39	120213.5428
40	117624.5174
41	116709.2451
42	115434.5862
43	112806.6823
44	110623.1399
45	112590.1784
46	109903.1522
47	110370.4986
48	109788.7152
49	108901.9638
50	111279.3563
51	109862.2453
52	110207.1304
53	110321.3512
54	111569.0857
55	111205.8472
56	111556.1194
57	115279.4078
58	116126.4029
59	116915.985
60	119259.5065
61	120703.2596
62	119389.6973
63	118605.0096
64	118484.4254
65	116494.4982
66	117080.8329
67	113238.1568
68	111898.8102
69	112281.4029
70	108172.9243
71	108083.4431
72	105873.853
73	105006.0174
74	103485.6069
75	102943.9235
76	102538.5728
77	101222.7222
78	102305.0124
79	100405.3065
80	102217.3308
81	102823.9745
82	101529.8575
83	100973.6657
84	102378.1647
85	102573.8079
86	103217.3161
87	104105.0981
88	103112.9175
89	104712.9192
90	106215.8001
91	107327.2857
92	107330.4606
93	107570.222
94	106278.7311
95	106974.3433
96	106458.4409
97	106236.8876
98	105910.1238
99	104633.9806
100	103319.062
101	102128.7116
102	102539.6679
103	101543.1096
104	99262.9344
105	98891.4685
106	97898.2621
107	97602.2929
108	97081.2988
109	96745.1224
110	96702.367
111	97071.2975
112	95952.6073
113	95016.0113
114	95399.4042
115	94897.7944
116	95751.5987
117	96423.0266
118	96256.1627
119	97275.945
120	97797.3371
121	98928.254
122	98065.9608
123	99267.097
124	98975.1336
125	98977.1287
126	99613.715
127	98846.509
128	97846.2788
129	97910.9009
130	96949.6992
131	96994.3174
132	97699.1168
133	95457.0453
134	95703.2639
135	96192.3518
136	94153.3298
137	94689.0841
138	94885.7283
139	93361.7613
140	94311.1117
141	93233.5039
142	93587.1179
143	94001.5229
144	93248.2263
145	91728.8817
146	92036.449
147	93191.7629
148	91992.7889
149	94177.8146
150	93915.9254
151	94179.74
152	93775.1124
153	93646.9765
154	93813.0339
155	92852.1282
156	94553.5156
157	92902.0089
158	93561.5287
159	92754.8714
160	92530.0703
161	91924.2637
162	92888.4253
163	92031.1272
164	90929.1348
165	92142.7522
166	89576.3828
167	90879.0821
168	89628.3719
169	90601.2547
170	89346.3613
171	89377.9152
172	89378.2306
173	89335.9033
174	89332.7147
175	89461.8408
176	88917.0141
177	88571.7297
178	88668.904
179	89384.1133
180	88493.89
181	88569.7202
182	88934.3195
183	89098.1282
184	89548.2211
185	88397.3287
186	88532.172
187	87882.5879
188	88509.3965
189	88479.5892
190	87428.1973
191	87980.2239
192	87638.6604
193	88176.234
194	87925.344
195	87431.3728
196	86946.2591
197	87482.4209
198	87617.1607
199	86347.5456
200	43028.6766
