Position	Value
-200	25382.775
-199	50280.2655
-198	51148.7103
-197	51035.0062
-196	50887.7793
-195	51695.2562
-194	51049.8266
-193	52253.1184
-192	52372.3429
-191	51901.9778
-190	52483.3131
-189	52402.6807
-188	52376.4548
-187	52300.5104
-186	52566.4225
-185	52174.4259
-184	51548.3238
-183	52171.0726
-182	52096.5042
-181	52423.3594
-180	52311.7732
-179	52210.9263
-178	52705.7328
-177	52560.4361
-176	53468.6073
-175	53529.795
-174	53767.7861
-173	53730.5733
-172	54811.124
-171	54610.099
-170	54988.1882
-169	55347.0153
-168	54937.1913
-167	54580.8499
-166	54749.0032
-165	55828.727
-164	55578.198
-163	55357.4661
-162	55820.618
-161	56228.5347
-160	56426.5365
-159	57256.2179
-158	57479.6266
-157	56480.2604
-156	57190.0236
-155	56241.9937
-154	56632.1543
-153	56563.4116
-152	55984.9674
-151	56215.6389
-150	56278.9539
-149	55247.7706
-148	55294.4003
-147	55782.2961
-146	55328.642
-145	56047.5691
-144	55896.1853
-143	56418.0525
-142	55377.2444
-141	56590.4311
-140	56117.6709
-139	56881.5264
-138	56699.4627
-137	56105.0574
-136	58162.9761
-135	58369.2038
-134	58064.1267
-133	57391.0185
-132	58211.9663
-131	58492.0201
-130	58522.2058
-129	59540.73
-128	58967.1361
-127	58701.8781
-126	59549.6793
-125	58963.1577
-124	58852.1436
-123	59340.1741
-122	58986.4379
-121	58734.6111
-120	58197.1141
-119	57174.5479
-118	57125.4548
-117	57778.5324
-116	56741.0091
-115	57457.4129
-114	56965.0987
-113	56907.0485
-112	57167.9579
-111	57344.4754
-110	57208.871
-109	57871.5801
-108	57772.3387
-107	58271.4716
-106	58579.4622
-105	59844.6018
-104	59545.5584
-103	60813.5488
-102	61533.2237
-101	61542.0583
-100	62045.3301
-99	62480.7392
-98	63609.219
-97	63199.6239
-96	64042.0435
-95	63417.2908
-94	62742.9749
-93	62861.6353
-92	62541.0629
-91	61792.71
-90	61388.1877
-89	60612.397
-88	59296.9507
-87	59925.7404
-86	59083.3153
-85	58960.042
-84	58740.8965
-83	59047.2355
-82	58807.6521
-81	58745.0606
-80	58878.4129
-79	59647.277
-78	60421.9523
-77	59800.3422
-76	60714.9495
-75	61911.7394
-74	61918.9326
-73	61973.451
-72	63664.4205
-71	64162.4483
-70	64953.9182
-69	65946.5774
-68	67112.8384
-67	67885.6361
-66	70228.6084
-65	70264.7393
-64	69910.0623
-63	71086.1975
-62	70660.6782
-61	70268.2736
-60	69451.6997
-59	68047.9492
-58	65683.4907
-57	65286.8273
-56	63498.695
-55	62663.2562
-54	63530.7364
-53	61698.4075
-52	61412.3421
-51	62054.3779
-50	62063.9444
-49	61863.4058
-48	62360.0314
-47	61733.6704
-46	61916.0881
-45	63419.0944
-44	63263.364
-43	63418.3402
-42	64327.6089
-41	65147.1129
-40	66704.3085
-39	68318.7853
-38	69823.7591
-37	70691.8557
-36	73259.8792
-35	75121.2141
-34	77109.0301
-33	80558.3471
-32	82397.7322
-31	85201.1328
-30	86414.5152
-29	80227.7539
-28	74638.4049
-27	70174.5024
-26	68904.9165
-25	69073.9536
-24	71167.4096
-23	72412.1613
-22	72967.4959
-21	75879.7139
-20	75526.0715
-19	76694.9637
-18	79624.7292
-17	80958.8256
-16	83722.4991
-15	87307.747
-14	89240.695
-13	95849.0746
-12	106097.9084
-11	112885.2131
-10	120744.254
-9	130435.4367
-8	140462.9615
-7	157786.9911
-6	175713.6427
-5	211175.3625
-4	229899.9955
-3	262902.1043
-2	306414.1904
-1	310547.5499
0	1986996.1045
1	310547.5499
2	306414.1904
3	262902.1043
4	229899.9955
5	211175.3625
6	175713.6427
7	157786.9911
8	140462.9615
9	130435.4367
10	120744.254
11	112885.2131
12	106097.9084
13	95849.0746
14	89240.695
15	87307.747
16	83722.4991
17	80958.8256
18	79624.7292
19	76694.9637
20	75526.0715
21	75879.7139
22	72967.4959
23	72412.1613
24	71167.4096
25	69073.9536
26	68904.9165
27	70174.5024
28	74638.4049
29	80227.7539
30	86414.5152
31	85201.1328
32	82397.7322
33	80558.3471
34	77109.0301
35	75121.2141
36	73259.8792
37	70691.8557
38	69823.7591
39	68318.7853
40	66704.3085
41	65147.1129
42	64327.6089
43	63418.3402
44	63263.364
45	63419.0944
46	61916.0881
47	61733.6704
48	62360.0314
49	61863.4058
50	62063.9444
51	62054.3779
52	61412.3421
53	61698.4075
54	63530.7364
55	62663.2562
56	63498.695
57	65286.8273
58	65683.4907
59	68047.9492
60	69451.6997
61	70268.2736
62	70660.6782
63	71086.1975
64	69910.0623
65	70264.7393
66	70228.6084
67	67885.6361
68	67112.8384
69	65946.5774
70	64953.9182
71	64162.4483
72	63664.4205
73	61973.451
74	61918.9326
75	61911.7394
76	60714.9495
77	59800.3422
78	60421.9523
79	59647.277
80	58878.4129
81	58745.0606
82	58807.6521
83	59047.2355
84	58740.8965
85	58960.042
86	59083.3153
87	59925.7404
88	59296.9507
89	60612.397
90	61388.1877
91	61792.71
92	62541.0629
93	62861.6353
94	62742.9749
95	63417.2908
96	64042.0435
97	63199.6239
98	63609.219
99	62480.7392
100	62045.3301
101	61542.0583
102	61533.2237
103	60813.5488
104	59545.5584
105	59844.6018
106	58579.4622
107	58271.4716
108	57772.3387
109	57871.5801
110	57208.871
111	57344.4754
112	57167.9579
113	56907.0485
114	56965.0987
115	57457.4129
116	56741.0091
117	57778.5324
118	57125.4548
119	57174.5479
120	58197.1141
121	58734.6111
122	58986.4379
123	59340.1741
124	58852.1436
125	58963.1577
126	59549.6793
127	58701.8781
128	58967.1361
129	59540.73
130	58522.2058
131	58492.0201
132	58211.9663
133	57391.0185
134	58064.1267
135	58369.2038
136	58162.9761
137	56105.0574
138	56699.4627
139	56881.5264
140	56117.6709
141	56590.4311
142	55377.2444
143	56418.0525
144	55896.1853
145	56047.5691
146	55328.642
147	55782.2961
148	55294.4003
149	55247.7706
150	56278.9539
151	56215.6389
152	55984.9674
153	56563.4116
154	56632.1543
155	56241.9937
156	57190.0236
157	56480.2604
158	57479.6266
159	57256.2179
160	56426.5365
161	56228.5347
162	55820.618
163	55357.4661
164	55578.198
165	55828.727
166	54749.0032
167	54580.8499
168	54937.1913
169	55347.0153
170	54988.1882
171	54610.099
172	54811.124
173	53730.5733
174	53767.7861
175	53529.795
176	53468.6073
177	52560.4361
178	52705.7328
179	52210.9263
180	52311.7732
181	52423.3594
182	52096.5042
183	52171.0726
184	51548.3238
185	52174.4259
186	52566.4225
187	52300.5104
188	52376.4548
189	52402.6807
190	52483.3131
191	51901.9778
192	52372.3429
193	52253.1184
194	51049.8266
195	51695.2562
196	50887.7793
197	51035.0062
198	51148.7103
199	50280.2655
200	25382.775
