Position	Value
-200	19587.2463
-199	38989.6108
-198	39787.8579
-197	39438.3252
-196	39896.5505
-195	39969.4759
-194	39975.7367
-193	41010.5317
-192	41356.4841
-191	40682.7706
-190	41093.4508
-189	41006.4547
-188	41226.3306
-187	41732.4868
-186	41618.2407
-185	41828.7813
-184	42436.8621
-183	41038.5255
-182	40994.9881
-181	41846.3969
-180	41306.6157
-179	42093.1281
-178	41428.7463
-177	41158.5075
-176	41588.4147
-175	40791.2563
-174	41137.9722
-173	40987.7435
-172	41090.7357
-171	41497.8316
-170	41890.532
-169	42137.214
-168	41611.6673
-167	42923.9931
-166	42717.5382
-165	43843.6599
-164	42982.2746
-163	44275.5249
-162	44315.9051
-161	44390.8609
-160	44955.6784
-159	44623.8998
-158	44868.5725
-157	44921.6334
-156	45924.3727
-155	44543.3568
-154	45306.7774
-153	44888.3685
-152	45052.9466
-151	44648.3449
-150	44223.4094
-149	44252.0157
-148	43940.4906
-147	43909.1746
-146	42824.0397
-145	42666.5713
-144	42782.8917
-143	43709.3599
-142	43291.9073
-141	43762.2864
-140	43264.6852
-139	44117.8127
-138	44334.165
-137	43810.456
-136	44687.0759
-135	45912.1202
-134	45477.2353
-133	45601.318
-132	47675.4157
-131	47148.677
-130	47189.6099
-129	48417.4774
-128	48434.9234
-127	49329.7533
-126	49651.3593
-125	49547.7493
-124	49648.391
-123	49424.5165
-122	49418.4734
-121	48738.2195
-120	47763.1599
-119	47819.0286
-118	47143.0783
-117	46841.1616
-116	45715.527
-115	45573.4249
-114	45057.7678
-113	44991.3765
-112	45335.762
-111	45942.2455
-110	46174.8099
-109	45449.304
-108	45440.0233
-107	46159.4184
-106	46880.9348
-105	47283.3605
-104	47657.5542
-103	50042.0659
-102	50577.7429
-101	51750.4654
-100	51346.0999
-99	53391.9633
-98	54352.5544
-97	54318.0512
-96	55027.3826
-95	55752.0766
-94	55867.7421
-93	56690.8032
-92	55025.2512
-91	55792.0362
-90	54399.6477
-89	52880.5296
-88	51999.7645
-87	51818.1001
-86	50096.8749
-85	49387.1384
-84	48646.0846
-83	47764.3925
-82	48178.4053
-81	48315.5795
-80	48577.7758
-79	47531.8505
-78	48657.2359
-77	48131.1319
-76	48774.4236
-75	49292.2442
-74	50209.6104
-73	51845.1725
-72	52253.7286
-71	54009.0581
-70	55389.551
-69	57766.918
-68	57986.4146
-67	59689.2731
-66	61328.5817
-65	61899.3292
-64	64232.8651
-63	64608.8984
-62	64488.4531
-61	65890.359
-60	64827.2904
-59	62797.3012
-58	60791.8714
-57	60708.2498
-56	57189.3997
-55	55895.529
-54	54225.8296
-53	53722.4029
-52	52872.2187
-51	52083.0831
-50	52664.8831
-49	51103.5953
-48	52833.6757
-47	51912.3936
-46	50632.9325
-45	54469.3612
-44	53256.3166
-43	54145.1804
-42	55913.7416
-41	57075.9147
-40	59267.1938
-39	60736.4406
-38	62288.8922
-37	65507.6131
-36	67120.5236
-35	71430.1169
-34	72364.4123
-33	76153.2456
-32	78663.6345
-31	77496.7087
-30	80977.3055
-29	77601.386
-28	73123.9525
-27	70455.635
-26	66930.4525
-25	65267.8746
-24	65191.6409
-23	64567.1979
-22	65089.9997
-21	64005.2425
-20	65706.7347
-19	66275.4358
-18	67878.3672
-17	67395.5398
-16	68765.0406
-15	71233.9417
-14	71542.1024
-13	74829.6577
-12	81302.2352
-11	82054.6535
-10	86253.9414
-9	93273.3207
-8	93782.6356
-7	102168.691
-6	107313.6483
-5	122510.4154
-4	122817.1744
-3	139340.896
-2	131124.4084
-1	129495.667
0	641858.894
1	129495.667
2	131124.4084
3	139340.896
4	122817.1744
5	122510.4154
6	107313.6483
7	102168.691
8	93782.6356
9	93273.3207
10	86253.9414
11	82054.6535
12	81302.2352
13	74829.6577
14	71542.1024
15	71233.9417
16	68765.0406
17	67395.5398
18	67878.3672
19	66275.4358
20	65706.7347
21	64005.2425
22	65089.9997
23	64567.1979
24	65191.6409
25	65267.8746
26	66930.4525
27	70455.635
28	73123.9525
29	77601.386
30	80977.3055
31	77496.7087
32	78663.6345
33	76153.2456
34	72364.4123
35	71430.1169
36	67120.5236
37	65507.6131
38	62288.8922
39	60736.4406
40	59267.1938
41	57075.9147
42	55913.7416
43	54145.1804
44	53256.3166
45	54469.3612
46	50632.9325
47	51912.3936
48	52833.6757
49	51103.5953
50	52664.8831
51	52083.0831
52	52872.2187
53	53722.4029
54	54225.8296
55	55895.529
56	57189.3997
57	60708.2498
58	60791.8714
59	62797.3012
60	64827.2904
61	65890.359
62	64488.4531
63	64608.8984
64	64232.8651
65	61899.3292
66	61328.5817
67	59689.2731
68	57986.4146
69	57766.918
70	55389.551
71	54009.0581
72	52253.7286
73	51845.1725
74	50209.6104
75	49292.2442
76	48774.4236
77	48131.1319
78	48657.2359
79	47531.8505
80	48577.7758
81	48315.5795
82	48178.4053
83	47764.3925
84	48646.0846
85	49387.1384
86	50096.8749
87	51818.1001
88	51999.7645
89	52880.5296
90	54399.6477
91	55792.0362
92	55025.2512
93	56690.8032
94	55867.7421
95	55752.0766
96	55027.3826
97	54318.0512
98	54352.5544
99	53391.9633
100	51346.0999
101	51750.4654
102	50577.7429
103	50042.0659
104	47657.5542
105	47283.3605
106	46880.9348
107	46159.4184
108	45440.0233
109	45449.304
110	46174.8099
111	45942.2455
112	45335.762
113	44991.3765
114	45057.7678
115	45573.4249
116	45715.527
117	46841.1616
118	47143.0783
119	47819.0286
120	47763.1599
121	48738.2195
122	49418.4734
123	49424.5165
124	49648.391
125	49547.7493
126	49651.3593
127	49329.7533
128	48434.9234
129	48417.4774
130	47189.6099
131	47148.677
132	47675.4157
133	45601.318
134	45477.2353
135	45912.1202
136	44687.0759
137	43810.456
138	44334.165
139	44117.8127
140	43264.6852
141	43762.2864
142	43291.9073
143	43709.3599
144	42782.8917
145	42666.5713
146	42824.0397
147	43909.1746
148	43940.4906
149	44252.0157
150	44223.4094
151	44648.3449
152	45052.9466
153	44888.3685
154	45306.7774
155	44543.3568
156	45924.3727
157	44921.6334
158	44868.5725
159	44623.8998
160	44955.6784
161	44390.8609
162	44315.9051
163	44275.5249
164	42982.2746
165	43843.6599
166	42717.5382
167	42923.9931
168	41611.6673
169	42137.214
170	41890.532
171	41497.8316
172	41090.7357
173	40987.7435
174	41137.9722
175	40791.2563
176	41588.4147
177	41158.5075
178	41428.7463
179	42093.1281
180	41306.6157
181	41846.3969
182	40994.9881
183	41038.5255
184	42436.8621
185	41828.7813
186	41618.2407
187	41732.4868
188	41226.3306
189	41006.4547
190	41093.4508
191	40682.7706
192	41356.4841
193	41010.5317
194	39975.7367
195	39969.4759
196	39896.5505
197	39438.3252
198	39787.8579
199	38989.6108
200	19587.2463
