Position	Value
-200	1030.1649
-199	2054.724
-198	1907.0604
-197	1971.6988
-196	2036.0896
-195	2028.2553
-194	2050.2301
-193	2066.4124
-192	2145.3926
-191	2176.8842
-190	2254.4697
-189	2243.5931
-188	2203.6736
-187	2278.154
-186	2214.5561
-185	2270.271
-184	2385.8462
-183	2297.7275
-182	2096.9945
-181	2168.2001
-180	2185.8543
-179	2266.7671
-178	2275.972
-177	2042.5809
-176	2194.1724
-175	2124.4698
-174	2149.3832
-173	2113.1392
-172	2197.0719
-171	2186.6061
-170	2265.137
-169	2194.7005
-168	2261.5825
-167	2295.8975
-166	2312.8017
-165	2338.65
-164	2352.2598
-163	2234.5519
-162	2312.1891
-161	2397.1744
-160	2317.5248
-159	2394.38
-158	2323.445
-157	2503.9552
-156	2292.543
-155	2430.2194
-154	2447.0198
-153	2395.4583
-152	2516.3713
-151	2306.9122
-150	2349.0133
-149	2275.2752
-148	2119.5592
-147	2241.5255
-146	2145.4846
-145	2218.7307
-144	2296.054
-143	2420.1358
-142	2262.0678
-141	2362.7945
-140	2298.6764
-139	2353.9954
-138	2270.7562
-137	2372.2689
-136	2333.3145
-135	2536.5376
-134	2637.1254
-133	2588.8158
-132	2409.6581
-131	2538.9819
-130	2671.9474
-129	2567.377
-128	2659.3169
-127	2735.4481
-126	2749.8195
-125	2604.9622
-124	2633.6405
-123	2703.4965
-122	2732.2709
-121	2505.6651
-120	2464.7469
-119	2608.4787
-118	2301.6648
-117	2396.9797
-116	2313.2483
-115	2311.5332
-114	2395.5704
-113	2410.7141
-112	2318.5433
-111	2635.9115
-110	2618.4074
-109	2631.4346
-108	2511.4273
-107	2605.8067
-106	2551.9466
-105	2763.4656
-104	2647.7015
-103	2794.476
-102	2714.2007
-101	2938.1065
-100	2937.6852
-99	3203.6003
-98	3299.1564
-97	3171.6314
-96	3447.1266
-95	3513.1619
-94	3497.4869
-93	3710.1698
-92	3577.1322
-91	3289.3681
-90	3192.9553
-89	3029.8833
-88	2982.3639
-87	2821.6391
-86	2750.5926
-85	2636.4598
-84	2252.8858
-83	2548.2298
-82	2454.2004
-81	2491.5526
-80	2384.4091
-79	2564.0635
-78	2642.6474
-77	2603.899
-76	2589.8656
-75	2797.5749
-74	2889.7611
-73	3003.9844
-72	3074.6736
-71	3366.7426
-70	3400.0051
-69	3660.4374
-68	3953.4702
-67	4110.619
-66	4632.1497
-65	4514.7071
-64	4611.4752
-63	4528.2054
-62	4800.0958
-61	5135.7274
-60	4661.1589
-59	4463.7828
-58	4319.8386
-57	3800.5011
-56	3499.7116
-55	3244.1846
-54	3089.0619
-53	2871.4134
-52	2843.1358
-51	2871.2985
-50	2901.3028
-49	2915.6835
-48	2846.9438
-47	2927.7528
-46	2827.6505
-45	3149.27
-44	3180.3282
-43	3139.7132
-42	3375.213
-41	3488.0873
-40	3833.1162
-39	3824.9305
-38	4240.5768
-37	4591.0227
-36	5296.1167
-35	5994.1116
-34	6099.7124
-33	6518.3245
-32	6762.4201
-31	6470.2321
-30	6622.8795
-29	6506.6525
-28	5785.2017
-27	5369.5145
-26	4945.6013
-25	4523.5729
-24	4532.1922
-23	4000.878
-22	4440.0147
-21	4461.3136
-20	4262.5975
-19	4594.2256
-18	4649.1481
-17	4768.867
-16	4818.4432
-15	4789.2651
-14	4961.3098
-13	5315.5339
-12	5786.086
-11	6408.6151
-10	6902.751
-9	7694.6729
-8	8199.6874
-7	9327.886
-6	10078.0485
-5	12503.4639
-4	13786.464
-3	16057.6889
-2	18198.4902
-1	20915.409
0	103532.333
1	20915.409
2	18198.4902
3	16057.6889
4	13786.464
5	12503.4639
6	10078.0485
7	9327.886
8	8199.6874
9	7694.6729
10	6902.751
11	6408.6151
12	5786.086
13	5315.5339
14	4961.3098
15	4789.2651
16	4818.4432
17	4768.867
18	4649.1481
19	4594.2256
20	4262.5975
21	4461.3136
22	4440.0147
23	4000.878
24	4532.1922
25	4523.5729
26	4945.6013
27	5369.5145
28	5785.2017
29	6506.6525
30	6622.8795
31	6470.2321
32	6762.4201
33	6518.3245
34	6099.7124
35	5994.1116
36	5296.1167
37	4591.0227
38	4240.5768
39	3824.9305
40	3833.1162
41	3488.0873
42	3375.213
43	3139.7132
44	3180.3282
45	3149.27
46	2827.6505
47	2927.7528
48	2846.9438
49	2915.6835
50	2901.3028
51	2871.2985
52	2843.1358
53	2871.4134
54	3089.0619
55	3244.1846
56	3499.7116
57	3800.5011
58	4319.8386
59	4463.7828
60	4661.1589
61	5135.7274
62	4800.0958
63	4528.2054
64	4611.4752
65	4514.7071
66	4632.1497
67	4110.619
68	3953.4702
69	3660.4374
70	3400.0051
71	3366.7426
72	3074.6736
73	3003.9844
74	2889.7611
75	2797.5749
76	2589.8656
77	2603.899
78	2642.6474
79	2564.0635
80	2384.4091
81	2491.5526
82	2454.2004
83	2548.2298
84	2252.8858
85	2636.4598
86	2750.5926
87	2821.6391
88	2982.3639
89	3029.8833
90	3192.9553
91	3289.3681
92	3577.1322
93	3710.1698
94	3497.4869
95	3513.1619
96	3447.1266
97	3171.6314
98	3299.1564
99	3203.6003
100	2937.6852
101	2938.1065
102	2714.2007
103	2794.476
104	2647.7015
105	2763.4656
106	2551.9466
107	2605.8067
108	2511.4273
109	2631.4346
110	2618.4074
111	2635.9115
112	2318.5433
113	2410.7141
114	2395.5704
115	2311.5332
116	2313.2483
117	2396.9797
118	2301.6648
119	2608.4787
120	2464.7469
121	2505.6651
122	2732.2709
123	2703.4965
124	2633.6405
125	2604.9622
126	2749.8195
127	2735.4481
128	2659.3169
129	2567.377
130	2671.9474
131	2538.9819
132	2409.6581
133	2588.8158
134	2637.1254
135	2536.5376
136	2333.3145
137	2372.2689
138	2270.7562
139	2353.9954
140	2298.6764
141	2362.7945
142	2262.0678
143	2420.1358
144	2296.054
145	2218.7307
146	2145.4846
147	2241.5255
148	2119.5592
149	2275.2752
150	2349.0133
151	2306.9122
152	2516.3713
153	2395.4583
154	2447.0198
155	2430.2194
156	2292.543
157	2503.9552
158	2323.445
159	2394.38
160	2317.5248
161	2397.1744
162	2312.1891
163	2234.5519
164	2352.2598
165	2338.65
166	2312.8017
167	2295.8975
168	2261.5825
169	2194.7005
170	2265.137
171	2186.6061
172	2197.0719
173	2113.1392
174	2149.3832
175	2124.4698
176	2194.1724
177	2042.5809
178	2275.972
179	2266.7671
180	2185.8543
181	2168.2001
182	2096.9945
183	2297.7275
184	2385.8462
185	2270.271
186	2214.5561
187	2278.154
188	2203.6736
189	2243.5931
190	2254.4697
191	2176.8842
192	2145.3926
193	2066.4124
194	2050.2301
195	2028.2553
196	2036.0896
197	1971.6988
198	1907.0604
199	2054.724
200	1030.1649
