Position	Value
-200	59525.8719
-199	119134.4582
-198	118897.0034
-197	119287.6545
-196	119013.4762
-195	118572.9586
-194	118585.6641
-193	118921.4048
-192	119400.7457
-191	119346.4529
-190	119192.6984
-189	119840.0346
-188	119431.5187
-187	120489.6253
-186	120158.817
-185	119526.2571
-184	120142.0833
-183	119845.52
-182	119789.7398
-181	119439.8574
-180	120742.84
-179	120418.0135
-178	120492.0183
-177	121603.7228
-176	121347.4631
-175	121616.6634
-174	121941.0916
-173	121803.9932
-172	122436.1628
-171	122038.0271
-170	122291.1563
-169	122164.2981
-168	122288.7364
-167	121541.5312
-166	122818.6384
-165	122796.8044
-164	123072.1997
-163	122298.0733
-162	122926.2253
-161	122169.3554
-160	121109.1867
-159	120902.8246
-158	121955.262
-157	120826.6436
-156	120843.5377
-155	121000.0892
-154	120508.4654
-153	121283.6586
-152	121338.6835
-151	121632.9164
-150	120369.2247
-149	121849.7105
-148	121517.067
-147	121908.4234
-146	121341.7758
-145	121794.0924
-144	121629.1072
-143	121344.0145
-142	120166.8807
-141	122053.0679
-140	120214.6514
-139	121463.492
-138	121058.3533
-137	120693.2182
-136	120031.6385
-135	120523.8812
-134	121048.8102
-133	121100.9819
-132	122144.3043
-131	122028.8208
-130	122243.4805
-129	121622.1074
-128	121728.8755
-127	121285.1428
-126	122051.9811
-125	120796.1084
-124	121561.7891
-123	121930.5049
-122	121131.9651
-121	121722.83
-120	122399.1039
-119	121951.1208
-118	122644.0037
-117	124186.458
-116	123296.5486
-115	124200.274
-114	124022.5485
-113	124384.5244
-112	124295.2059
-111	123334.9643
-110	123932.6419
-109	123644.2605
-108	123366.3048
-107	123551.2351
-106	123302.0697
-105	123714.6729
-104	122689.762
-103	122981.2596
-102	122622.8212
-101	123217.8545
-100	122633.7738
-99	124008.4986
-98	123616.9023
-97	123838.5654
-96	123075.7249
-95	122139.9321
-94	122825.3807
-93	123417.7026
-92	123597.1636
-91	123720.0066
-90	124397.863
-89	125599.4478
-88	124509.8294
-87	124628.6546
-86	125483.9909
-85	124812.9142
-84	126141.2883
-83	125161.8953
-82	125657.8009
-81	124939.656
-80	124388.3702
-79	123568.0858
-78	123533.8883
-77	122976.9143
-76	122570.122
-75	123329.5683
-74	121588.5727
-73	122929.736
-72	122154.5345
-71	122090.467
-70	122630.526
-69	123083.2208
-68	122709.6548
-67	123217.1265
-66	123214.575
-65	123973.1328
-64	125292.6484
-63	126506.3466
-62	125671.4457
-61	126351.798
-60	127686.3091
-59	127434.6735
-58	129361.4632
-57	130387.5739
-56	130580.2001
-55	131285.3436
-54	129250.5462
-53	129128.5959
-52	127688.0375
-51	125570.842
-50	123321.4998
-49	122843.3848
-48	122223.793
-47	122289.9714
-46	121851.4965
-45	121220.2558
-44	121318.9711
-43	121171.5669
-42	121665.3557
-41	121723.3603
-40	122883.0858
-39	122248.3489
-38	124179.6869
-37	124997.337
-36	127619.7192
-35	127738.6413
-34	128864.2925
-33	131381.0798
-32	133963.0375
-31	137245.7926
-30	142377.2894
-29	146177.141
-28	149765.6426
-27	150002.8017
-26	146539.6576
-25	144338.3813
-24	139530.5414
-23	133747.6193
-22	132544.1612
-21	134897.9574
-20	136886.2371
-19	139768.1316
-18	143671.7864
-17	147022.8723
-16	151172.5756
-15	154280.805
-14	154370.8661
-13	159548.9013
-12	164229.0183
-11	170364.2874
-10	178617.119
-9	186934.6042
-8	203252.4509
-7	213749.3818
-6	227076.0632
-5	249790.4271
-4	258489.0217
-3	283652.2653
-2	357571.195
-1	365658.7327
0	1358761.2434
1	365658.7327
2	357571.195
3	283652.2653
4	258489.0217
5	249790.4271
6	227076.0632
7	213749.3818
8	203252.4509
9	186934.6042
10	178617.119
11	170364.2874
12	164229.0183
13	159548.9013
14	154370.8661
15	154280.805
16	151172.5756
17	147022.8723
18	143671.7864
19	139768.1316
20	136886.2371
21	134897.9574
22	132544.1612
23	133747.6193
24	139530.5414
25	144338.3813
26	146539.6576
27	150002.8017
28	149765.6426
29	146177.141
30	142377.2894
31	137245.7926
32	133963.0375
33	131381.0798
34	128864.2925
35	127738.6413
36	127619.7192
37	124997.337
38	124179.6869
39	122248.3489
40	122883.0858
41	121723.3603
42	121665.3557
43	121171.5669
44	121318.9711
45	121220.2558
46	121851.4965
47	122289.9714
48	122223.793
49	122843.3848
50	123321.4998
51	125570.842
52	127688.0375
53	129128.5959
54	129250.5462
55	131285.3436
56	130580.2001
57	130387.5739
58	129361.4632
59	127434.6735
60	127686.3091
61	126351.798
62	125671.4457
63	126506.3466
64	125292.6484
65	123973.1328
66	123214.575
67	123217.1265
68	122709.6548
69	123083.2208
70	122630.526
71	122090.467
72	122154.5345
73	122929.736
74	121588.5727
75	123329.5683
76	122570.122
77	122976.9143
78	123533.8883
79	123568.0858
80	124388.3702
81	124939.656
82	125657.8009
83	125161.8953
84	126141.2883
85	124812.9142
86	125483.9909
87	124628.6546
88	124509.8294
89	125599.4478
90	124397.863
91	123720.0066
92	123597.1636
93	123417.7026
94	122825.3807
95	122139.9321
96	123075.7249
97	123838.5654
98	123616.9023
99	124008.4986
100	122633.7738
101	123217.8545
102	122622.8212
103	122981.2596
104	122689.762
105	123714.6729
106	123302.0697
107	123551.2351
108	123366.3048
109	123644.2605
110	123932.6419
111	123334.9643
112	124295.2059
113	124384.5244
114	124022.5485
115	124200.274
116	123296.5486
117	124186.458
118	122644.0037
119	121951.1208
120	122399.1039
121	121722.83
122	121131.9651
123	121930.5049
124	121561.7891
125	120796.1084
126	122051.9811
127	121285.1428
128	121728.8755
129	121622.1074
130	122243.4805
131	122028.8208
132	122144.3043
133	121100.9819
134	121048.8102
135	120523.8812
136	120031.6385
137	120693.2182
138	121058.3533
139	121463.492
140	120214.6514
141	122053.0679
142	120166.8807
143	121344.0145
144	121629.1072
145	121794.0924
146	121341.7758
147	121908.4234
148	121517.067
149	121849.7105
150	120369.2247
151	121632.9164
152	121338.6835
153	121283.6586
154	120508.4654
155	121000.0892
156	120843.5377
157	120826.6436
158	121955.262
159	120902.8246
160	121109.1867
161	122169.3554
162	122926.2253
163	122298.0733
164	123072.1997
165	122796.8044
166	122818.6384
167	121541.5312
168	122288.7364
169	122164.2981
170	122291.1563
171	122038.0271
172	122436.1628
173	121803.9932
174	121941.0916
175	121616.6634
176	121347.4631
177	121603.7228
178	120492.0183
179	120418.0135
180	120742.84
181	119439.8574
182	119789.7398
183	119845.52
184	120142.0833
185	119526.2571
186	120158.817
187	120489.6253
188	119431.5187
189	119840.0346
190	119192.6984
191	119346.4529
192	119400.7457
193	118921.4048
194	118585.6641
195	118572.9586
196	119013.4762
197	119287.6545
198	118897.0034
199	119134.4582
200	59525.8719
