Position	Value
-200	1.3315
-199	2.2995
-198	4.6227
-197	5.4011
-196	6.2195
-195	2.4902
-194	5.619
-193	2.397
-192	3.6291
-191	4.3667
-190	4.1175
-189	3.1642
-188	3.4895
-187	5.2116
-186	8.0177
-185	2.5606
-184	6.2938
-183	5.3849
-182	2.0459
-181	3.5294
-180	2.5581
-179	3.3747
-178	3.0008
-177	4.143
-176	4.0688
-175	7.3875
-174	5.4696
-173	2.1724
-172	4.2556
-171	2.0126
-170	3.4959
-169	2.5502
-168	2.5198
-167	2.4996
-166	4.7439
-165	3.3155
-164	3.3058
-163	2.4019
-162	5.419
-161	2.8561
-160	5.5837
-159	2.3958
-158	2.555
-157	6.7437
-156	4.1785
-155	4.2109
-154	4.6436
-153	6.3363
-152	4.1901
-151	5.3326
-150	6.3084
-149	6.5768
-148	5.2212
-147	2.915
-146	5.2526
-145	5.1902
-144	6.4508
-143	3.6483
-142	5.028
-141	4.4772
-140	5.2905
-139	3.4687
-138	4.8623
-137	3.9212
-136	2.6189
-135	3.424
-134	1.9852
-133	7.1888
-132	9.0234
-131	9.3204
-130	8.5007
-129	4.4832
-128	3.6084
-127	3.4489
-126	4.7792
-125	5.3765
-124	6.5519
-123	6.282
-122	9.173
-121	8.0216
-120	8.9446
-119	9.3198
-118	7.2189
-117	3.3445
-116	4.8376
-115	5.5959
-114	2.8703
-113	5.5389
-112	3.4498
-111	2.3351
-110	4.4873
-109	4.4142
-108	5.8811
-107	2.2677
-106	2.5019
-105	3.0318
-104	2.4429
-103	3.5583
-102	5.1662
-101	3.4337
-100	5.813
-99	4.2062
-98	3.3662
-97	5.9066
-96	4.8933
-95	4.4028
-94	5.6746
-93	3.3079
-92	2.1993
-91	6.3254
-90	6.6361
-89	5.9327
-88	8.9328
-87	8.1215
-86	4.7558
-85	4.0898
-84	5.9591
-83	4.1082
-82	7.2745
-81	5.873
-80	9.1515
-79	6.0608
-78	7.5136
-77	5.8757
-76	3.5652
-75	6.8986
-74	2.8517
-73	5.3303
-72	2.7704
-71	2.7797
-70	4.4313
-69	7.6699
-68	5.0728
-67	8.6955
-66	10.083
-65	6.1378
-64	6.0301
-63	3.7738
-62	5.414
-61	6.8693
-60	4.9357
-59	7.5926
-58	7.3387
-57	7.365
-56	6.6671
-55	7.1731
-54	6.9614
-53	7.8566
-52	8.2354
-51	6.6788
-50	10.1239
-49	8.0497
-48	5.7376
-47	7.2706
-46	11.0079
-45	11.0176
-44	13.8207
-43	13.4771
-42	9.6127
-41	6.6927
-40	3.2165
-39	5.0419
-38	7.0745
-37	6.3759
-36	2.8869
-35	6.5095
-34	8.7582
-33	11.0021
-32	10.5621
-31	10.686
-30	10.5855
-29	8.375
-28	7.2498
-27	8.8838
-26	7.3657
-25	9.176
-24	13.9951
-23	15.0379
-22	12.444
-21	13.0292
-20	8.3031
-19	9.2809
-18	6.6495
-17	7.6245
-16	8.8611
-15	11.5118
-14	18.2155
-13	17.7984
-12	20.7638
-11	17.885
-10	23.8534
-9	19.7587
-8	19.1423
-7	13.9239
-6	15.1912
-5	30.9209
-4	36.7079
-3	54.8385
-2	81.4459
-1	139.34
0	2621.9293
1	139.34
2	81.4459
3	54.8385
4	36.7079
5	30.9209
6	15.1912
7	13.9239
8	19.1423
9	19.7587
10	23.8534
11	17.885
12	20.7638
13	17.7984
14	18.2155
15	11.5118
16	8.8611
17	7.6245
18	6.6495
19	9.2809
20	8.3031
21	13.0292
22	12.444
23	15.0379
24	13.9951
25	9.176
26	7.3657
27	8.8838
28	7.2498
29	8.375
30	10.5855
31	10.686
32	10.5621
33	11.0021
34	8.7582
35	6.5095
36	2.8869
37	6.3759
38	7.0745
39	5.0419
40	3.2165
41	6.6927
42	9.6127
43	13.4771
44	13.8207
45	11.0176
46	11.0079
47	7.2706
48	5.7376
49	8.0497
50	10.1239
51	6.6788
52	8.2354
53	7.8566
54	6.9614
55	7.1731
56	6.6671
57	7.365
58	7.3387
59	7.5926
60	4.9357
61	6.8693
62	5.414
63	3.7738
64	6.0301
65	6.1378
66	10.083
67	8.6955
68	5.0728
69	7.6699
70	4.4313
71	2.7797
72	2.7704
73	5.3303
74	2.8517
75	6.8986
76	3.5652
77	5.8757
78	7.5136
79	6.0608
80	9.1515
81	5.873
82	7.2745
83	4.1082
84	5.9591
85	4.0898
86	4.7558
87	8.1215
88	8.9328
89	5.9327
90	6.6361
91	6.3254
92	2.1993
93	3.3079
94	5.6746
95	4.4028
96	4.8933
97	5.9066
98	3.3662
99	4.2062
100	5.813
101	3.4337
102	5.1662
103	3.5583
104	2.4429
105	3.0318
106	2.5019
107	2.2677
108	5.8811
109	4.4142
110	4.4873
111	2.3351
112	3.4498
113	5.5389
114	2.8703
115	5.5959
116	4.8376
117	3.3445
118	7.2189
119	9.3198
120	8.9446
121	8.0216
122	9.173
123	6.282
124	6.5519
125	5.3765
126	4.7792
127	3.4489
128	3.6084
129	4.4832
130	8.5007
131	9.3204
132	9.0234
133	7.1888
134	1.9852
135	3.424
136	2.6189
137	3.9212
138	4.8623
139	3.4687
140	5.2905
141	4.4772
142	5.028
143	3.6483
144	6.4508
145	5.1902
146	5.2526
147	2.915
148	5.2212
149	6.5768
150	6.3084
151	5.3326
152	4.1901
153	6.3363
154	4.6436
155	4.2109
156	4.1785
157	6.7437
158	2.555
159	2.3958
160	5.5837
161	2.8561
162	5.419
163	2.4019
164	3.3058
165	3.3155
166	4.7439
167	2.4996
168	2.5198
169	2.5502
170	3.4959
171	2.0126
172	4.2556
173	2.1724
174	5.4696
175	7.3875
176	4.0688
177	4.143
178	3.0008
179	3.3747
180	2.5581
181	3.5294
182	2.0459
183	5.3849
184	6.2938
185	2.5606
186	8.0177
187	5.2116
188	3.4895
189	3.1642
190	4.1175
191	4.3667
192	3.6291
193	2.397
194	5.619
195	2.4902
196	6.2195
197	5.4011
198	4.6227
199	2.2995
200	1.3315
