Position	Value
-200	11.6976
-199	20.2972
-198	23.042
-197	17.3292
-196	26.8516
-195	32.2296
-194	18.2782
-193	27.8491
-192	25.5102
-191	30.8654
-190	25.467
-189	23.295
-188	33.6425
-187	16.9331
-186	18.1324
-185	21.2692
-184	23.4303
-183	25.6502
-182	21.6853
-181	22.8704
-180	19.7754
-179	25.3329
-178	29.1068
-177	30.5181
-176	20.161
-175	12.1561
-174	26.5251
-173	27.2126
-172	20.1963
-171	33.1678
-170	20.4546
-169	25.8356
-168	22.7677
-167	21.3853
-166	26.7244
-165	40.2171
-164	25.8965
-163	25.596
-162	35.4801
-161	23.9039
-160	25.1351
-159	19.0473
-158	25.353
-157	23.5172
-156	25.9166
-155	22.8435
-154	29.1693
-153	33.2826
-152	19.9838
-151	14.6841
-150	26.4164
-149	29.5173
-148	27.3221
-147	29.6978
-146	21.1343
-145	24.8387
-144	36.408
-143	31.0372
-142	35.4171
-141	41.2542
-140	43.3391
-139	38.268
-138	34.0629
-137	37.1453
-136	28.5963
-135	37.29
-134	32.8887
-133	29.0065
-132	29.6645
-131	33.0765
-130	27.4934
-129	35.4433
-128	27.9186
-127	25.6419
-126	38.9273
-125	29.9063
-124	29.0408
-123	21.6036
-122	26.378
-121	29.6341
-120	26.3171
-119	28.014
-118	29.9384
-117	27.226
-116	35.842
-115	25.3911
-114	27.4537
-113	35.5578
-112	34.7083
-111	35.8542
-110	35.7344
-109	35.8008
-108	29.9493
-107	27.2924
-106	27.5951
-105	18.9198
-104	27.6105
-103	30.6056
-102	26.3675
-101	30.2013
-100	36.1878
-99	30.9357
-98	41.3728
-97	41.0966
-96	44.345
-95	29.754
-94	27.8197
-93	27.3223
-92	20.6347
-91	34.9875
-90	29.4209
-89	41.024
-88	39.4702
-87	32.8886
-86	33.1909
-85	37.2093
-84	36.7116
-83	26.012
-82	40.7892
-81	24.6251
-80	25.7579
-79	27.9149
-78	34.6959
-77	28.7593
-76	29.5338
-75	32.6395
-74	36.7318
-73	32.6787
-72	32.9134
-71	28.9027
-70	29.6915
-69	32.2271
-68	38.8325
-67	37.2009
-66	34.3682
-65	37.6342
-64	33.5926
-63	35.2312
-62	27.2621
-61	30.335
-60	25.9103
-59	25.9741
-58	32.3808
-57	40.7688
-56	28.3311
-55	23.4086
-54	30.6893
-53	20.6432
-52	31.8346
-51	32.9031
-50	28.2252
-49	31.5546
-48	25.5885
-47	22.5328
-46	23.5429
-45	31.4772
-44	47.1984
-43	45.7653
-42	48.8515
-41	38.4613
-40	36.6855
-39	29.176
-38	40.8579
-37	28.5298
-36	35.903
-35	41.3445
-34	36.3877
-33	29.8318
-32	30.9501
-31	41.5301
-30	43.3302
-29	29.5161
-28	42.7058
-27	39.4416
-26	38.3906
-25	49.6092
-24	34.2672
-23	33.1261
-22	22.2659
-21	23.876
-20	26.1052
-19	34.965
-18	35.9715
-17	29.6862
-16	29.0073
-15	52.6955
-14	38.0148
-13	46.4977
-12	37.9389
-11	37.115
-10	38.3569
-9	48.5979
-8	42.7836
-7	46.1626
-6	38.0236
-5	36.7625
-4	56.2685
-3	91.7011
-2	120.8794
-1	235.3253
0	5796.3972
1	235.3253
2	120.8794
3	91.7011
4	56.2685
5	36.7625
6	38.0236
7	46.1626
8	42.7836
9	48.5979
10	38.3569
11	37.115
12	37.9389
13	46.4977
14	38.0148
15	52.6955
16	29.0073
17	29.6862
18	35.9715
19	34.965
20	26.1052
21	23.876
22	22.2659
23	33.1261
24	34.2672
25	49.6092
26	38.3906
27	39.4416
28	42.7058
29	29.5161
30	43.3302
31	41.5301
32	30.9501
33	29.8318
34	36.3877
35	41.3445
36	35.903
37	28.5298
38	40.8579
39	29.176
40	36.6855
41	38.4613
42	48.8515
43	45.7653
44	47.1984
45	31.4772
46	23.5429
47	22.5328
48	25.5885
49	31.5546
50	28.2252
51	32.9031
52	31.8346
53	20.6432
54	30.6893
55	23.4086
56	28.3311
57	40.7688
58	32.3808
59	25.9741
60	25.9103
61	30.335
62	27.2621
63	35.2312
64	33.5926
65	37.6342
66	34.3682
67	37.2009
68	38.8325
69	32.2271
70	29.6915
71	28.9027
72	32.9134
73	32.6787
74	36.7318
75	32.6395
76	29.5338
77	28.7593
78	34.6959
79	27.9149
80	25.7579
81	24.6251
82	40.7892
83	26.012
84	36.7116
85	37.2093
86	33.1909
87	32.8886
88	39.4702
89	41.024
90	29.4209
91	34.9875
92	20.6347
93	27.3223
94	27.8197
95	29.754
96	44.345
97	41.0966
98	41.3728
99	30.9357
100	36.1878
101	30.2013
102	26.3675
103	30.6056
104	27.6105
105	18.9198
106	27.5951
107	27.2924
108	29.9493
109	35.8008
110	35.7344
111	35.8542
112	34.7083
113	35.5578
114	27.4537
115	25.3911
116	35.842
117	27.226
118	29.9384
119	28.014
120	26.3171
121	29.6341
122	26.378
123	21.6036
124	29.0408
125	29.9063
126	38.9273
127	25.6419
128	27.9186
129	35.4433
130	27.4934
131	33.0765
132	29.6645
133	29.0065
134	32.8887
135	37.29
136	28.5963
137	37.1453
138	34.0629
139	38.268
140	43.3391
141	41.2542
142	35.4171
143	31.0372
144	36.408
145	24.8387
146	21.1343
147	29.6978
148	27.3221
149	29.5173
150	26.4164
151	14.6841
152	19.9838
153	33.2826
154	29.1693
155	22.8435
156	25.9166
157	23.5172
158	25.353
159	19.0473
160	25.1351
161	23.9039
162	35.4801
163	25.596
164	25.8965
165	40.2171
166	26.7244
167	21.3853
168	22.7677
169	25.8356
170	20.4546
171	33.1678
172	20.1963
173	27.2126
174	26.5251
175	12.1561
176	20.161
177	30.5181
178	29.1068
179	25.3329
180	19.7754
181	22.8704
182	21.6853
183	25.6502
184	23.4303
185	21.2692
186	18.1324
187	16.9331
188	33.6425
189	23.295
190	25.467
191	30.8654
192	25.5102
193	27.8491
194	18.2782
195	32.2296
196	26.8516
197	17.3292
198	23.042
199	20.2972
200	11.6976
