Position	Value
-200	8208.7828
-199	16955.8415
-198	17008.662
-197	16813.6086
-196	17350.0711
-195	17152.6558
-194	17519.3251
-193	17383.4211
-192	17408.6854
-191	17054.1564
-190	17136.3062
-189	17002.4202
-188	17440.9613
-187	17194.7158
-186	17367.4738
-185	17095.1591
-184	16762.563
-183	17363.978
-182	17257.3835
-181	17259.6771
-180	16953.365
-179	16981.8795
-178	17087.0803
-177	17361.8347
-176	17269.6127
-175	17034.118
-174	17094.3631
-173	17088.1724
-172	17195.9942
-171	16984.5848
-170	16942.8586
-169	17145.7497
-168	17081.5007
-167	17182.0072
-166	17776.9906
-165	17336.4588
-164	17564.1826
-163	17464.0357
-162	17191.1682
-161	17631.51
-160	17249.7439
-159	17107.2184
-158	17245.3282
-157	17042.154
-156	17432.5771
-155	17047.5693
-154	17161.2087
-153	17307.5518
-152	17308.8374
-151	17377.4133
-150	17152.6854
-149	17181.6591
-148	17246.4885
-147	16998.7898
-146	17091.5511
-145	17213.6509
-144	17562.8713
-143	17234.9671
-142	17055.1149
-141	17360.2118
-140	17011.3255
-139	17348.0005
-138	17226.8825
-137	16957.0329
-136	16949.934
-135	16838.1487
-134	16739.4732
-133	16878.8509
-132	17005.1493
-131	16829.9988
-130	16691.7247
-129	16751.3094
-128	16843.6952
-127	16975.6622
-126	17549.5375
-125	16948.9718
-124	17465.1551
-123	16634.0756
-122	17108.6709
-121	17082.0375
-120	17417.9934
-119	17310.9201
-118	17360.8379
-117	17485.4358
-116	17637.8533
-115	17380.0247
-114	17941.426
-113	17933.0833
-112	17664.2643
-111	17536.3403
-110	17511.1959
-109	17545.1757
-108	17424.51
-107	17345.664
-106	17205.1211
-105	17464.3102
-104	16695.3417
-103	16896.3324
-102	16874.3499
-101	17381.7476
-100	17020.7384
-99	17361.9813
-98	17671.1519
-97	17494.0315
-96	17682.5624
-95	17594.8664
-94	17523.7692
-93	17546.0809
-92	17588.1165
-91	17412.1132
-90	17611.7449
-89	18150.4105
-88	17585.8842
-87	17682.0356
-86	17629.5831
-85	17547.6826
-84	17862.9256
-83	17500.9326
-82	18103.0749
-81	17213.6556
-80	17841.3591
-79	17202.6563
-78	17217.1396
-77	17293.3223
-76	17289.9404
-75	17377.9367
-74	17118.0304
-73	17609.6219
-72	18008.762
-71	17749.022
-70	17809.2364
-69	18024.9517
-68	17630.0686
-67	18062.1421
-66	17821.2746
-65	18007.9712
-64	18199.3058
-63	18026.8742
-62	18066.0467
-61	18207.3575
-60	18638.2544
-59	18223.9222
-58	18964.8187
-57	18901.7514
-56	18572.2308
-55	18778.9478
-54	18711.8264
-53	18407.1875
-52	17958.809
-51	18083.0375
-50	17283.3112
-49	17809.5795
-48	17089.9814
-47	17363.1956
-46	16592.7815
-45	16763.4948
-44	16711.7412
-43	16791.8122
-42	16765.1332
-41	16633.0426
-40	16925.8631
-39	16915.6135
-38	17599.0324
-37	17618.2488
-36	17833.9441
-35	17959.4654
-34	18251.674
-33	18740.2745
-32	19350.9029
-31	19936.6725
-30	20478.9767
-29	21097.8278
-28	21044.0595
-27	21506.8904
-26	20442.865
-25	19499.6991
-24	17879.8843
-23	17712.6775
-22	17413.0563
-21	17784.5355
-20	18665.3722
-19	19306.2787
-18	20150.0232
-17	21446.0286
-16	22635.562
-15	23694.3366
-14	24445.4862
-13	25751.1311
-12	28030.5959
-11	29567.2781
-10	32243.91
-9	35238.1836
-8	40068.7784
-7	43871.7574
-6	49015.2512
-5	56751.3512
-4	60873.2827
-3	68918.3478
-2	89537.9732
-1	87140.3245
0	361814.6656
1	87140.3245
2	89537.9732
3	68918.3478
4	60873.2827
5	56751.3512
6	49015.2512
7	43871.7574
8	40068.7784
9	35238.1836
10	32243.91
11	29567.2781
12	28030.5959
13	25751.1311
14	24445.4862
15	23694.3366
16	22635.562
17	21446.0286
18	20150.0232
19	19306.2787
20	18665.3722
21	17784.5355
22	17413.0563
23	17712.6775
24	17879.8843
25	19499.6991
26	20442.865
27	21506.8904
28	21044.0595
29	21097.8278
30	20478.9767
31	19936.6725
32	19350.9029
33	18740.2745
34	18251.674
35	17959.4654
36	17833.9441
37	17618.2488
38	17599.0324
39	16915.6135
40	16925.8631
41	16633.0426
42	16765.1332
43	16791.8122
44	16711.7412
45	16763.4948
46	16592.7815
47	17363.1956
48	17089.9814
49	17809.5795
50	17283.3112
51	18083.0375
52	17958.809
53	18407.1875
54	18711.8264
55	18778.9478
56	18572.2308
57	18901.7514
58	18964.8187
59	18223.9222
60	18638.2544
61	18207.3575
62	18066.0467
63	18026.8742
64	18199.3058
65	18007.9712
66	17821.2746
67	18062.1421
68	17630.0686
69	18024.9517
70	17809.2364
71	17749.022
72	18008.762
73	17609.6219
74	17118.0304
75	17377.9367
76	17289.9404
77	17293.3223
78	17217.1396
79	17202.6563
80	17841.3591
81	17213.6556
82	18103.0749
83	17500.9326
84	17862.9256
85	17547.6826
86	17629.5831
87	17682.0356
88	17585.8842
89	18150.4105
90	17611.7449
91	17412.1132
92	17588.1165
93	17546.0809
94	17523.7692
95	17594.8664
96	17682.5624
97	17494.0315
98	17671.1519
99	17361.9813
100	17020.7384
101	17381.7476
102	16874.3499
103	16896.3324
104	16695.3417
105	17464.3102
106	17205.1211
107	17345.664
108	17424.51
109	17545.1757
110	17511.1959
111	17536.3403
112	17664.2643
113	17933.0833
114	17941.426
115	17380.0247
116	17637.8533
117	17485.4358
118	17360.8379
119	17310.9201
120	17417.9934
121	17082.0375
122	17108.6709
123	16634.0756
124	17465.1551
125	16948.9718
126	17549.5375
127	16975.6622
128	16843.6952
129	16751.3094
130	16691.7247
131	16829.9988
132	17005.1493
133	16878.8509
134	16739.4732
135	16838.1487
136	16949.934
137	16957.0329
138	17226.8825
139	17348.0005
140	17011.3255
141	17360.2118
142	17055.1149
143	17234.9671
144	17562.8713
145	17213.6509
146	17091.5511
147	16998.7898
148	17246.4885
149	17181.6591
150	17152.6854
151	17377.4133
152	17308.8374
153	17307.5518
154	17161.2087
155	17047.5693
156	17432.5771
157	17042.154
158	17245.3282
159	17107.2184
160	17249.7439
161	17631.51
162	17191.1682
163	17464.0357
164	17564.1826
165	17336.4588
166	17776.9906
167	17182.0072
168	17081.5007
169	17145.7497
170	16942.8586
171	16984.5848
172	17195.9942
173	17088.1724
174	17094.3631
175	17034.118
176	17269.6127
177	17361.8347
178	17087.0803
179	16981.8795
180	16953.365
181	17259.6771
182	17257.3835
183	17363.978
184	16762.563
185	17095.1591
186	17367.4738
187	17194.7158
188	17440.9613
189	17002.4202
190	17136.3062
191	17054.1564
192	17408.6854
193	17383.4211
194	17519.3251
195	17152.6558
196	17350.0711
197	16813.6086
198	17008.662
199	16955.8415
200	8208.7828
