Position	Value
-200	16.6941
-199	37.1172
-198	33.1545
-197	33.9462
-196	34.2511
-195	31.3312
-194	27.3747
-193	34.9514
-192	32.9457
-191	30.916
-190	36.2212
-189	34.4553
-188	29.806
-187	33.5223
-186	37.1952
-185	21.1349
-184	25.1172
-183	24.217
-182	25.8357
-181	25.1583
-180	31.7164
-179	36.1326
-178	36.6216
-177	39.6035
-176	34.1973
-175	39.3552
-174	39.3603
-173	49.8163
-172	36.4869
-171	35.8062
-170	39.5144
-169	37.9962
-168	29.085
-167	36.0529
-166	40.2989
-165	48.937
-164	41.4537
-163	25.5609
-162	31.1285
-161	32.9469
-160	30.2065
-159	33.3301
-158	36.561
-157	31.3938
-156	32.3314
-155	39.2229
-154	33.6043
-153	35.2541
-152	36.7882
-151	23.5488
-150	26.6721
-149	27.9773
-148	25.6423
-147	30.0217
-146	29.2302
-145	30.8291
-144	31.6003
-143	39.7567
-142	39.0465
-141	41.2784
-140	35.2529
-139	41.3929
-138	34.1179
-137	40.4119
-136	30.1698
-135	43.4943
-134	32.6578
-133	26.7509
-132	29.0485
-131	38.1674
-130	33.3848
-129	36.1589
-128	32.0028
-127	29.1376
-126	31.5608
-125	33.0168
-124	36.548
-123	32.7304
-122	28.5988
-121	31.4869
-120	34.1869
-119	37.5938
-118	46.1553
-117	39.5453
-116	48.8801
-115	41.1712
-114	44.6325
-113	37.7875
-112	39.2831
-111	46.6641
-110	42.9101
-109	37.9837
-108	31.3801
-107	37.0401
-106	22.8802
-105	33.4057
-104	35.8482
-103	33.263
-102	35.1064
-101	32.966
-100	26.9999
-99	37.2876
-98	28.7088
-97	27.9905
-96	27.6381
-95	30.916
-94	32.8371
-93	28.8845
-92	34.5019
-91	31.5149
-90	38.5026
-89	36.243
-88	46.6806
-87	31.4203
-86	28.2446
-85	27.8648
-84	39.2894
-83	34.974
-82	23.9243
-81	34.5909
-80	31.6978
-79	35.5742
-78	31.1019
-77	30.0654
-76	31.6972
-75	37.7731
-74	27.5851
-73	27.5448
-72	25.5734
-71	40.1861
-70	38.3671
-69	42.1108
-68	44.4026
-67	41.9258
-66	55.0729
-65	55.0331
-64	47.8888
-63	32.7201
-62	44.1166
-61	41.421
-60	39.0814
-59	53.9538
-58	48.7577
-57	41.3073
-56	46.103
-55	52.1067
-54	48.7398
-53	42.5731
-52	41.3362
-51	39.6606
-50	42.0731
-49	40.8718
-48	31.533
-47	37.4737
-46	31.3464
-45	38.4625
-44	47.1643
-43	56.0203
-42	43.7744
-41	46.2285
-40	35.9296
-39	37.7909
-38	42.6814
-37	53.6009
-36	40.5959
-35	46.8336
-34	49.373
-33	55.2983
-32	48.5071
-31	62.755
-30	55.1637
-29	48.5142
-28	45.412
-27	56.3699
-26	58.8031
-25	64.3581
-24	69.3501
-23	76.6252
-22	65.448
-21	70.5815
-20	51.0217
-19	55.551
-18	55.5178
-17	57.4519
-16	65.9196
-15	81.4165
-14	81.1618
-13	94.8621
-12	103.1246
-11	105.1029
-10	99.1213
-9	110.8905
-8	112.1866
-7	111.396
-6	145.7866
-5	184.3413
-4	226.6382
-3	351.3144
-2	514.1326
-1	796.5312
0	11909.4921
1	796.5312
2	514.1326
3	351.3144
4	226.6382
5	184.3413
6	145.7866
7	111.396
8	112.1866
9	110.8905
10	99.1213
11	105.1029
12	103.1246
13	94.8621
14	81.1618
15	81.4165
16	65.9196
17	57.4519
18	55.5178
19	55.551
20	51.0217
21	70.5815
22	65.448
23	76.6252
24	69.3501
25	64.3581
26	58.8031
27	56.3699
28	45.412
29	48.5142
30	55.1637
31	62.755
32	48.5071
33	55.2983
34	49.373
35	46.8336
36	40.5959
37	53.6009
38	42.6814
39	37.7909
40	35.9296
41	46.2285
42	43.7744
43	56.0203
44	47.1643
45	38.4625
46	31.3464
47	37.4737
48	31.533
49	40.8718
50	42.0731
51	39.6606
52	41.3362
53	42.5731
54	48.7398
55	52.1067
56	46.103
57	41.3073
58	48.7577
59	53.9538
60	39.0814
61	41.421
62	44.1166
63	32.7201
64	47.8888
65	55.0331
66	55.0729
67	41.9258
68	44.4026
69	42.1108
70	38.3671
71	40.1861
72	25.5734
73	27.5448
74	27.5851
75	37.7731
76	31.6972
77	30.0654
78	31.1019
79	35.5742
80	31.6978
81	34.5909
82	23.9243
83	34.974
84	39.2894
85	27.8648
86	28.2446
87	31.4203
88	46.6806
89	36.243
90	38.5026
91	31.5149
92	34.5019
93	28.8845
94	32.8371
95	30.916
96	27.6381
97	27.9905
98	28.7088
99	37.2876
100	26.9999
101	32.966
102	35.1064
103	33.263
104	35.8482
105	33.4057
106	22.8802
107	37.0401
108	31.3801
109	37.9837
110	42.9101
111	46.6641
112	39.2831
113	37.7875
114	44.6325
115	41.1712
116	48.8801
117	39.5453
118	46.1553
119	37.5938
120	34.1869
121	31.4869
122	28.5988
123	32.7304
124	36.548
125	33.0168
126	31.5608
127	29.1376
128	32.0028
129	36.1589
130	33.3848
131	38.1674
132	29.0485
133	26.7509
134	32.6578
135	43.4943
136	30.1698
137	40.4119
138	34.1179
139	41.3929
140	35.2529
141	41.2784
142	39.0465
143	39.7567
144	31.6003
145	30.8291
146	29.2302
147	30.0217
148	25.6423
149	27.9773
150	26.6721
151	23.5488
152	36.7882
153	35.2541
154	33.6043
155	39.2229
156	32.3314
157	31.3938
158	36.561
159	33.3301
160	30.2065
161	32.9469
162	31.1285
163	25.5609
164	41.4537
165	48.937
166	40.2989
167	36.0529
168	29.085
169	37.9962
170	39.5144
171	35.8062
172	36.4869
173	49.8163
174	39.3603
175	39.3552
176	34.1973
177	39.6035
178	36.6216
179	36.1326
180	31.7164
181	25.1583
182	25.8357
183	24.217
184	25.1172
185	21.1349
186	37.1952
187	33.5223
188	29.806
189	34.4553
190	36.2212
191	30.916
192	32.9457
193	34.9514
194	27.3747
195	31.3312
196	34.2511
197	33.9462
198	33.1545
199	37.1172
200	16.6941
