Position	Value
-200	541.3488
-199	1059.5091
-198	1041.2395
-197	1027.5579
-196	1074.6693
-195	1117.0316
-194	1073.4274
-193	1089.0652
-192	1126.4056
-191	1097.9328
-190	1098.8571
-189	1075.8114
-188	1065.2171
-187	1081.4756
-186	1099.4614
-185	1078.3017
-184	1053.334
-183	1093.3335
-182	1087.5366
-181	1072.8743
-180	1065.3755
-179	1070.9057
-178	1026.8834
-177	1032.1398
-176	1040.1569
-175	1076.5255
-174	1102.7275
-173	1108.1792
-172	1077.9563
-171	1111.302
-170	1110.6169
-169	1113.8692
-168	1135.1934
-167	1086.8487
-166	1091.1306
-165	1094.166
-164	1083.117
-163	1098.0462
-162	1100.9543
-161	1080.1548
-160	1096.0453
-159	1104.0821
-158	1097.9334
-157	1127.5149
-156	1123.6504
-155	1104.6418
-154	1132.0126
-153	1134.1348
-152	1174.6488
-151	1126.3298
-150	1132.1848
-149	1167.8724
-148	1166.9799
-147	1185.8306
-146	1197.6317
-145	1239.507
-144	1240.0128
-143	1215.4899
-142	1149.5999
-141	1217.0333
-140	1144.0526
-139	1153.3012
-138	1208.1879
-137	1134.372
-136	1181.6317
-135	1167.4894
-134	1185.0819
-133	1197.5046
-132	1196.6529
-131	1152.3754
-130	1113.0295
-129	1155.7637
-128	1128.1872
-127	1081.6216
-126	1094.4908
-125	1063.9267
-124	1114.5183
-123	1119.7743
-122	1091.816
-121	1079.5364
-120	1033.1825
-119	1076.9049
-118	1060.0355
-117	1118.5607
-116	1119.0046
-115	1117.6088
-114	1138.7334
-113	1087.9568
-112	1144.4606
-111	1167.9425
-110	1198.1477
-109	1217.6748
-108	1198.4529
-107	1159.1888
-106	1146.5927
-105	1081.7529
-104	1104.7499
-103	1061.9205
-102	1090.2215
-101	1126.5989
-100	1177.7062
-99	1193.9729
-98	1194.5571
-97	1196.4211
-96	1188.0772
-95	1150.6304
-94	1176.7997
-93	1135.698
-92	1209.1619
-91	1182.6524
-90	1158.6821
-89	1195.341
-88	1165.0218
-87	1240.1879
-86	1214.5642
-85	1205.9537
-84	1240.9426
-83	1141.6299
-82	1208.4228
-81	1183.4438
-80	1146.3353
-79	1243.8388
-78	1188.9156
-77	1209.7256
-76	1254.6789
-75	1253.8775
-74	1298.5819
-73	1227.7038
-72	1263.0145
-71	1217.5368
-70	1305.1398
-69	1266.0652
-68	1295.1878
-67	1272.4007
-66	1253.6724
-65	1200.1047
-64	1234.0042
-63	1232.7667
-62	1178.5569
-61	1245.3071
-60	1235.0571
-59	1280.6118
-58	1310.4329
-57	1295.1865
-56	1269.0098
-55	1214.8278
-54	1242.435
-53	1252.4406
-52	1314.4718
-51	1322.1124
-50	1283.0748
-49	1262.2595
-48	1202.2781
-47	1269.1501
-46	1290.7713
-45	1273.292
-44	1154.8719
-43	1158.7706
-42	1188.7378
-41	1148.1902
-40	1235.5794
-39	1200.6952
-38	1231.8814
-37	1190.9699
-36	1238.7309
-35	1256.2482
-34	1296.5837
-33	1362.1987
-32	1331.0423
-31	1333.1515
-30	1400.1471
-29	1353.525
-28	1373.9854
-27	1376.1238
-26	1308.3886
-25	1338.5988
-24	1340.4435
-23	1204.9093
-22	1228.04
-21	1177.57
-20	1304.9212
-19	1312.3187
-18	1445.6477
-17	1527.0751
-16	1584.3136
-15	1669.2796
-14	1716.1524
-13	1781.0553
-12	1899.6302
-11	1891.8635
-10	1982.4319
-9	1987.823
-8	2089.2033
-7	2284.0339
-6	2411.1542
-5	2779.5168
-4	3444.1176
-3	4833.4116
-2	7676.4095
-1	9445.8773
0	63048.9211
1	9445.8773
2	7676.4095
3	4833.4116
4	3444.1176
5	2779.5168
6	2411.1542
7	2284.0339
8	2089.2033
9	1987.823
10	1982.4319
11	1891.8635
12	1899.6302
13	1781.0553
14	1716.1524
15	1669.2796
16	1584.3136
17	1527.0751
18	1445.6477
19	1312.3187
20	1304.9212
21	1177.57
22	1228.04
23	1204.9093
24	1340.4435
25	1338.5988
26	1308.3886
27	1376.1238
28	1373.9854
29	1353.525
30	1400.1471
31	1333.1515
32	1331.0423
33	1362.1987
34	1296.5837
35	1256.2482
36	1238.7309
37	1190.9699
38	1231.8814
39	1200.6952
40	1235.5794
41	1148.1902
42	1188.7378
43	1158.7706
44	1154.8719
45	1273.292
46	1290.7713
47	1269.1501
48	1202.2781
49	1262.2595
50	1283.0748
51	1322.1124
52	1314.4718
53	1252.4406
54	1242.435
55	1214.8278
56	1269.0098
57	1295.1865
58	1310.4329
59	1280.6118
60	1235.0571
61	1245.3071
62	1178.5569
63	1232.7667
64	1234.0042
65	1200.1047
66	1253.6724
67	1272.4007
68	1295.1878
69	1266.0652
70	1305.1398
71	1217.5368
72	1263.0145
73	1227.7038
74	1298.5819
75	1253.8775
76	1254.6789
77	1209.7256
78	1188.9156
79	1243.8388
80	1146.3353
81	1183.4438
82	1208.4228
83	1141.6299
84	1240.9426
85	1205.9537
86	1214.5642
87	1240.1879
88	1165.0218
89	1195.341
90	1158.6821
91	1182.6524
92	1209.1619
93	1135.698
94	1176.7997
95	1150.6304
96	1188.0772
97	1196.4211
98	1194.5571
99	1193.9729
100	1177.7062
101	1126.5989
102	1090.2215
103	1061.9205
104	1104.7499
105	1081.7529
106	1146.5927
107	1159.1888
108	1198.4529
109	1217.6748
110	1198.1477
111	1167.9425
112	1144.4606
113	1087.9568
114	1138.7334
115	1117.6088
116	1119.0046
117	1118.5607
118	1060.0355
119	1076.9049
120	1033.1825
121	1079.5364
122	1091.816
123	1119.7743
124	1114.5183
125	1063.9267
126	1094.4908
127	1081.6216
128	1128.1872
129	1155.7637
130	1113.0295
131	1152.3754
132	1196.6529
133	1197.5046
134	1185.0819
135	1167.4894
136	1181.6317
137	1134.372
138	1208.1879
139	1153.3012
140	1144.0526
141	1217.0333
142	1149.5999
143	1215.4899
144	1240.0128
145	1239.507
146	1197.6317
147	1185.8306
148	1166.9799
149	1167.8724
150	1132.1848
151	1126.3298
152	1174.6488
153	1134.1348
154	1132.0126
155	1104.6418
156	1123.6504
157	1127.5149
158	1097.9334
159	1104.0821
160	1096.0453
161	1080.1548
162	1100.9543
163	1098.0462
164	1083.117
165	1094.166
166	1091.1306
167	1086.8487
168	1135.1934
169	1113.8692
170	1110.6169
171	1111.302
172	1077.9563
173	1108.1792
174	1102.7275
175	1076.5255
176	1040.1569
177	1032.1398
178	1026.8834
179	1070.9057
180	1065.3755
181	1072.8743
182	1087.5366
183	1093.3335
184	1053.334
185	1078.3017
186	1099.4614
187	1081.4756
188	1065.2171
189	1075.8114
190	1098.8571
191	1097.9328
192	1126.4056
193	1089.0652
194	1073.4274
195	1117.0316
196	1074.6693
197	1027.5579
198	1041.2395
199	1059.5091
200	541.3488
