Position	Value
-200	21.3889
-199	36.998
-198	32.0981
-197	38.111
-196	34.8436
-195	30.4177
-194	28.7395
-193	32.3967
-192	31.4406
-191	37.7123
-190	48.1505
-189	48.9517
-188	41.9138
-187	40.268
-186	36.0363
-185	32.8513
-184	30.2992
-183	24.8506
-182	25.1262
-181	30.0972
-180	29.6745
-179	28.8433
-178	30.4174
-177	34.5205
-176	31.4437
-175	32.7089
-174	34.3458
-173	35.6091
-172	26.5667
-171	23.9376
-170	20.3689
-169	25.4647
-168	29.3061
-167	34.8664
-166	26.6249
-165	25.8764
-164	23.1991
-163	30.3941
-162	23.4445
-161	27.0344
-160	30.254
-159	32.0097
-158	31.4701
-157	35.3925
-156	35.7496
-155	28.9881
-154	39.1093
-153	34.3892
-152	37.1272
-151	39.891
-150	37.1481
-149	30.2328
-148	32.2505
-147	30.7589
-146	31.0995
-145	35.6498
-144	36.6495
-143	36.9874
-142	29.0759
-141	36.4565
-140	36.7532
-139	42.3726
-138	43.0025
-137	33.4478
-136	37.6789
-135	32.1634
-134	34.4622
-133	41.2821
-132	37.5873
-131	51.382
-130	42.1466
-129	34.161
-128	42.9911
-127	51.2816
-126	46.687
-125	49.4242
-124	47.8568
-123	37.6081
-122	39.8278
-121	53.5405
-120	41.0041
-119	45.9003
-118	47.3298
-117	48.3191
-116	48.6268
-115	40.0012
-114	45.9135
-113	49.5936
-112	43.685
-111	38.5436
-110	36.91
-109	36.038
-108	43.2618
-107	35.3193
-106	35.9037
-105	30.7507
-104	28.0808
-103	40.4316
-102	39.5517
-101	37.9278
-100	34.8679
-99	37.018
-98	36.0089
-97	37.3074
-96	42.8536
-95	35.7103
-94	36.9831
-93	36.2033
-92	49.4742
-91	47.4712
-90	54.0664
-89	58.1938
-88	60.7382
-87	54.1243
-86	52.6202
-85	46.8303
-84	42.101
-83	36.6711
-82	46.9414
-81	31.5397
-80	46.3887
-79	60.4805
-78	64.4668
-77	64.4034
-76	59.8495
-75	51.367
-74	45.0682
-73	36.243
-72	30.396
-71	38.5618
-70	32.0738
-69	39.2563
-68	43.3431
-67	49.6747
-66	57.0327
-65	46.0101
-64	46.2566
-63	40.9904
-62	41.389
-61	37.6962
-60	34.1016
-59	42.3876
-58	34.8529
-57	44.4461
-56	37.1477
-55	30.4976
-54	40.7836
-53	35.7777
-52	31.679
-51	37.0685
-50	38.3095
-49	30.7557
-48	42.61
-47	43.699
-46	41.6805
-45	43.4541
-44	50.4441
-43	50.7688
-42	50.6714
-41	52.9598
-40	46.7265
-39	46.9965
-38	43.0235
-37	34.8599
-36	43.074
-35	50.9797
-34	50.9976
-33	52.1695
-32	55.9521
-31	44.9493
-30	51.5903
-29	38.6715
-28	42.0467
-27	40.9919
-26	38.4791
-25	44.5919
-24	37.9601
-23	39.4446
-22	42.5519
-21	48.0751
-20	42.9524
-19	57.3578
-18	50.5835
-17	58.0656
-16	57.6243
-15	65.5374
-14	79.3099
-13	93.524
-12	99.5033
-11	114.2095
-10	104.624
-9	95.9519
-8	90.0774
-7	86.1611
-6	99.6274
-5	141.08
-4	203.1808
-3	311.7721
-2	462.073
-1	615.5779
0	9461.872
1	615.5779
2	462.073
3	311.7721
4	203.1808
5	141.08
6	99.6274
7	86.1611
8	90.0774
9	95.9519
10	104.624
11	114.2095
12	99.5033
13	93.524
14	79.3099
15	65.5374
16	57.6243
17	58.0656
18	50.5835
19	57.3578
20	42.9524
21	48.0751
22	42.5519
23	39.4446
24	37.9601
25	44.5919
26	38.4791
27	40.9919
28	42.0467
29	38.6715
30	51.5903
31	44.9493
32	55.9521
33	52.1695
34	50.9976
35	50.9797
36	43.074
37	34.8599
38	43.0235
39	46.9965
40	46.7265
41	52.9598
42	50.6714
43	50.7688
44	50.4441
45	43.4541
46	41.6805
47	43.699
48	42.61
49	30.7557
50	38.3095
51	37.0685
52	31.679
53	35.7777
54	40.7836
55	30.4976
56	37.1477
57	44.4461
58	34.8529
59	42.3876
60	34.1016
61	37.6962
62	41.389
63	40.9904
64	46.2566
65	46.0101
66	57.0327
67	49.6747
68	43.3431
69	39.2563
70	32.0738
71	38.5618
72	30.396
73	36.243
74	45.0682
75	51.367
76	59.8495
77	64.4034
78	64.4668
79	60.4805
80	46.3887
81	31.5397
82	46.9414
83	36.6711
84	42.101
85	46.8303
86	52.6202
87	54.1243
88	60.7382
89	58.1938
90	54.0664
91	47.4712
92	49.4742
93	36.2033
94	36.9831
95	35.7103
96	42.8536
97	37.3074
98	36.0089
99	37.018
100	34.8679
101	37.9278
102	39.5517
103	40.4316
104	28.0808
105	30.7507
106	35.9037
107	35.3193
108	43.2618
109	36.038
110	36.91
111	38.5436
112	43.685
113	49.5936
114	45.9135
115	40.0012
116	48.6268
117	48.3191
118	47.3298
119	45.9003
120	41.0041
121	53.5405
122	39.8278
123	37.6081
124	47.8568
125	49.4242
126	46.687
127	51.2816
128	42.9911
129	34.161
130	42.1466
131	51.382
132	37.5873
133	41.2821
134	34.4622
135	32.1634
136	37.6789
137	33.4478
138	43.0025
139	42.3726
140	36.7532
141	36.4565
142	29.0759
143	36.9874
144	36.6495
145	35.6498
146	31.0995
147	30.7589
148	32.2505
149	30.2328
150	37.1481
151	39.891
152	37.1272
153	34.3892
154	39.1093
155	28.9881
156	35.7496
157	35.3925
158	31.4701
159	32.0097
160	30.254
161	27.0344
162	23.4445
163	30.3941
164	23.1991
165	25.8764
166	26.6249
167	34.8664
168	29.3061
169	25.4647
170	20.3689
171	23.9376
172	26.5667
173	35.6091
174	34.3458
175	32.7089
176	31.4437
177	34.5205
178	30.4174
179	28.8433
180	29.6745
181	30.0972
182	25.1262
183	24.8506
184	30.2992
185	32.8513
186	36.0363
187	40.268
188	41.9138
189	48.9517
190	48.1505
191	37.7123
192	31.4406
193	32.3967
194	28.7395
195	30.4177
196	34.8436
197	38.111
198	32.0981
199	36.998
200	21.3889
