Position	Value
-200	3344.2895
-199	6494.5089
-198	6715.4301
-197	6649.9291
-196	6783.8035
-195	6933.8529
-194	6966.0466
-193	6601.247
-192	6970.0747
-191	6594.1736
-190	6625.5706
-189	6634.7888
-188	6823.1998
-187	6839.2987
-186	6964.0393
-185	6850.0271
-184	6933.4257
-183	6980.7775
-182	6966.6449
-181	7066.2406
-180	7036.8737
-179	6983.2885
-178	6827.0064
-177	7216.2773
-176	6925.1074
-175	7071.9662
-174	6987.4003
-173	7046.8971
-172	6961.1141
-171	7081.1149
-170	7137.2061
-169	7118.3439
-168	7045.996
-167	7056.1027
-166	7107.356
-165	7049.5048
-164	7178.5752
-163	7057.6262
-162	6854.7579
-161	7130.6949
-160	6903.2967
-159	6937.6518
-158	7198.9047
-157	6962.3309
-156	7051.8195
-155	6811.4934
-154	6837.8382
-153	7118.6235
-152	7002.0897
-151	7043.3741
-150	6835.2795
-149	6986.7291
-148	6822.9578
-147	7045.3462
-146	6970.2684
-145	7138.4035
-144	7248.4921
-143	7162.7763
-142	6884.4093
-141	7031.1986
-140	6832.5669
-139	7002.9497
-138	6614.2109
-137	6700.1371
-136	6874.3716
-135	6586.5289
-134	6623.4237
-133	6444.3212
-132	6761.4628
-131	6654.7497
-130	6671.5647
-129	6727.2277
-128	6765.3479
-127	6726.7858
-126	6745.6526
-125	6615.7456
-124	6565.1998
-123	6563.2214
-122	6645.9834
-121	6620.2155
-120	6599.3836
-119	6945.7852
-118	6706.6443
-117	6980.4306
-116	6891.3187
-115	7026.3153
-114	7111.1908
-113	7134.641
-112	7307.826
-111	7104.441
-110	7180.198
-109	7022.2524
-108	7312.3127
-107	7165.3368
-106	6942.5793
-105	6951.5514
-104	6906.1528
-103	6830.8046
-102	6907.0337
-101	7049.026
-100	7066.6876
-99	7074.6884
-98	7362.351
-97	7377.3061
-96	7349.589
-95	7267.8517
-94	7240.5575
-93	7355.2373
-92	7417.1968
-91	7307.637
-90	7526.5422
-89	7533.9813
-88	7359.491
-87	7608.5697
-86	7693.5501
-85	7453.3381
-84	7482.8602
-83	7439.0579
-82	7508.587
-81	7173.1532
-80	7105.6929
-79	6831.0701
-78	7060.4837
-77	7005.8373
-76	6491.7729
-75	6774.5019
-74	6757.1591
-73	6935.0194
-72	7200.8659
-71	7189.8061
-70	7165.3997
-69	7138.8012
-68	7125.2093
-67	7076.7194
-66	6898.6976
-65	7035.3345
-64	6870.0036
-63	7124.6607
-62	7089.0382
-61	7305.5271
-60	7377.2071
-59	7284.2424
-58	7834.3693
-57	7835.9919
-56	7778.1269
-55	7668.3069
-54	7882.1248
-53	7556.8387
-52	7727.1214
-51	7318.4871
-50	6953.4991
-49	7078.3786
-48	6749.5054
-47	7184.4229
-46	6757.3829
-45	6780.7555
-44	6906.0572
-43	6806.2477
-42	6794.8342
-41	6751.2965
-40	6914.9924
-39	6762.9304
-38	7372.2077
-37	7219.6027
-36	7375.312
-35	7609.0899
-34	7767.3745
-33	7932.0846
-32	8251.2784
-31	8396.8137
-30	8690.1404
-29	9254.6302
-28	9056.3416
-27	9387.5667
-26	8706.1478
-25	8529.324
-24	7763.4524
-23	7577.2068
-22	7587.4834
-21	7792.9141
-20	8168.2543
-19	8505.0945
-18	8627.1881
-17	9253.031
-16	10040.4826
-15	10525.2042
-14	10849.4949
-13	11600.6416
-12	12469.1501
-11	13808.1709
-10	14813.4081
-9	16316.3552
-8	18798.7346
-7	20413.6001
-6	23159.9809
-5	27492.2169
-4	29660.7894
-3	34566.7424
-2	44875.8285
-1	45045.4399
0	211111.5309
1	45045.4399
2	44875.8285
3	34566.7424
4	29660.7894
5	27492.2169
6	23159.9809
7	20413.6001
8	18798.7346
9	16316.3552
10	14813.4081
11	13808.1709
12	12469.1501
13	11600.6416
14	10849.4949
15	10525.2042
16	10040.4826
17	9253.031
18	8627.1881
19	8505.0945
20	8168.2543
21	7792.9141
22	7587.4834
23	7577.2068
24	7763.4524
25	8529.324
26	8706.1478
27	9387.5667
28	9056.3416
29	9254.6302
30	8690.1404
31	8396.8137
32	8251.2784
33	7932.0846
34	7767.3745
35	7609.0899
36	7375.312
37	7219.6027
38	7372.2077
39	6762.9304
40	6914.9924
41	6751.2965
42	6794.8342
43	6806.2477
44	6906.0572
45	6780.7555
46	6757.3829
47	7184.4229
48	6749.5054
49	7078.3786
50	6953.4991
51	7318.4871
52	7727.1214
53	7556.8387
54	7882.1248
55	7668.3069
56	7778.1269
57	7835.9919
58	7834.3693
59	7284.2424
60	7377.2071
61	7305.5271
62	7089.0382
63	7124.6607
64	6870.0036
65	7035.3345
66	6898.6976
67	7076.7194
68	7125.2093
69	7138.8012
70	7165.3997
71	7189.8061
72	7200.8659
73	6935.0194
74	6757.1591
75	6774.5019
76	6491.7729
77	7005.8373
78	7060.4837
79	6831.0701
80	7105.6929
81	7173.1532
82	7508.587
83	7439.0579
84	7482.8602
85	7453.3381
86	7693.5501
87	7608.5697
88	7359.491
89	7533.9813
90	7526.5422
91	7307.637
92	7417.1968
93	7355.2373
94	7240.5575
95	7267.8517
96	7349.589
97	7377.3061
98	7362.351
99	7074.6884
100	7066.6876
101	7049.026
102	6907.0337
103	6830.8046
104	6906.1528
105	6951.5514
106	6942.5793
107	7165.3368
108	7312.3127
109	7022.2524
110	7180.198
111	7104.441
112	7307.826
113	7134.641
114	7111.1908
115	7026.3153
116	6891.3187
117	6980.4306
118	6706.6443
119	6945.7852
120	6599.3836
121	6620.2155
122	6645.9834
123	6563.2214
124	6565.1998
125	6615.7456
126	6745.6526
127	6726.7858
128	6765.3479
129	6727.2277
130	6671.5647
131	6654.7497
132	6761.4628
133	6444.3212
134	6623.4237
135	6586.5289
136	6874.3716
137	6700.1371
138	6614.2109
139	7002.9497
140	6832.5669
141	7031.1986
142	6884.4093
143	7162.7763
144	7248.4921
145	7138.4035
146	6970.2684
147	7045.3462
148	6822.9578
149	6986.7291
150	6835.2795
151	7043.3741
152	7002.0897
153	7118.6235
154	6837.8382
155	6811.4934
156	7051.8195
157	6962.3309
158	7198.9047
159	6937.6518
160	6903.2967
161	7130.6949
162	6854.7579
163	7057.6262
164	7178.5752
165	7049.5048
166	7107.356
167	7056.1027
168	7045.996
169	7118.3439
170	7137.2061
171	7081.1149
172	6961.1141
173	7046.8971
174	6987.4003
175	7071.9662
176	6925.1074
177	7216.2773
178	6827.0064
179	6983.2885
180	7036.8737
181	7066.2406
182	6966.6449
183	6980.7775
184	6933.4257
185	6850.0271
186	6964.0393
187	6839.2987
188	6823.1998
189	6634.7888
190	6625.5706
191	6594.1736
192	6970.0747
193	6601.247
194	6966.0466
195	6933.8529
196	6783.8035
197	6649.9291
198	6715.4301
199	6494.5089
200	3344.2895
