Position	Value
-200	7703.2495
-199	15409.7857
-198	15415.9125
-197	15541.5202
-196	15715.6465
-195	15791.6602
-194	15809.6428
-193	15654.4859
-192	16003.9352
-191	15721.7282
-190	15501.1808
-189	15495.1488
-188	15817.4178
-187	15547.4907
-186	15915.7022
-185	15677.8444
-184	15638.8111
-183	15995.1519
-182	15848.1425
-181	15796.6549
-180	15601.445
-179	15886.1331
-178	15560.498
-177	15998.6863
-176	15706.2378
-175	15627.2642
-174	15610.7567
-173	15718.1834
-172	15363.7639
-171	15435.7177
-170	15209.7154
-169	15668.3728
-168	15272.4195
-167	15679.0409
-166	15528.5973
-165	15638.9255
-164	15434.8765
-163	15572.4839
-162	15593.891
-161	15691.2705
-160	15557.7916
-159	15602.5177
-158	15841.2772
-157	15528.2585
-156	15660.1248
-155	15338.1999
-154	15437.8787
-153	15670.8886
-152	15749.2654
-151	15932.9648
-150	15547.7287
-149	15708.9435
-148	15771.1589
-147	15763.9076
-146	15790.2189
-145	16000.2214
-144	15996.1552
-143	16082.1939
-142	15966.8629
-141	16062.7764
-140	15916.3893
-139	16011.9316
-138	15616.7024
-137	15756.5485
-136	15423.1026
-135	15490.6104
-134	15018.5027
-133	15173.7519
-132	15516.1834
-131	15199.2665
-130	15312.3512
-129	15297.751
-128	15239.0935
-127	15261.42
-126	15318.5617
-125	15082.3917
-124	15219.2745
-123	15271.6816
-122	15420.5807
-121	15424.4628
-120	15535.4774
-119	15879.7351
-118	15631.78
-117	15694.9848
-116	15693.767
-115	15784.9311
-114	16277.648
-113	16163.13
-112	16257.4347
-111	16148.3486
-110	16295.4365
-109	16198.8825
-108	15859.867
-107	16056.0255
-106	15916.7569
-105	15977.9828
-104	15714.5184
-103	15271.8426
-102	15350.902
-101	15942.4431
-100	15460.8476
-99	15670.3943
-98	16014.5681
-97	15942.1113
-96	15982.5938
-95	16164.4549
-94	15872.4555
-93	16110.3724
-92	15965.9129
-91	15979.8123
-90	15963.4295
-89	16418.1368
-88	15922.1339
-87	16388.9596
-86	16135.0146
-85	16049.5705
-84	16187.075
-83	15815.8402
-82	16263.4223
-81	15917.089
-80	15983.3173
-79	15832.4067
-78	15972.8516
-77	15745.3776
-76	15582.187
-75	15701.1395
-74	15834.8169
-73	16242.7684
-72	16377.0033
-71	16349.3096
-70	16444.915
-69	16563.752
-68	16114.9895
-67	16127.9397
-66	16421.6047
-65	16313.536
-64	16318.6711
-63	16325.9054
-62	16423.0481
-61	16231.3329
-60	16521.9616
-59	16518.727
-58	17121.073
-57	16843.3132
-56	17002.1608
-55	17114.6196
-54	16913.7177
-53	16904.7133
-52	16747.6828
-51	16246.1763
-50	15730.8893
-49	16008.6166
-48	15435.6537
-47	15634.7421
-46	15359.2124
-45	15306.2849
-44	15183.3886
-43	15401.5129
-42	15264.2689
-41	15426.99
-40	15424.6233
-39	15522.9531
-38	15990.8448
-37	16052.3062
-36	16179.7179
-35	16255.2923
-34	16763.7243
-33	16950.6868
-32	17239.8665
-31	17715.9361
-30	18397.1015
-29	18774.0357
-28	18914.0782
-27	19279.3253
-26	18788.8989
-25	17627.9667
-24	16633.402
-23	16335.888
-22	15974.5413
-21	16505.6371
-20	17088.4541
-19	17612.6451
-18	18558.4988
-17	19757.4853
-16	20667.2551
-15	21506.3028
-14	22817.3077
-13	23637.8616
-12	25586.6902
-11	27344.6621
-10	29076.1838
-9	32588.2389
-8	36280.0626
-7	38848.1571
-6	44110.938
-5	50672.5215
-4	53873.2153
-3	61537.2166
-2	79911.5601
-1	78682.728
0	327762.5558
1	78682.728
2	79911.5601
3	61537.2166
4	53873.2153
5	50672.5215
6	44110.938
7	38848.1571
8	36280.0626
9	32588.2389
10	29076.1838
11	27344.6621
12	25586.6902
13	23637.8616
14	22817.3077
15	21506.3028
16	20667.2551
17	19757.4853
18	18558.4988
19	17612.6451
20	17088.4541
21	16505.6371
22	15974.5413
23	16335.888
24	16633.402
25	17627.9667
26	18788.8989
27	19279.3253
28	18914.0782
29	18774.0357
30	18397.1015
31	17715.9361
32	17239.8665
33	16950.6868
34	16763.7243
35	16255.2923
36	16179.7179
37	16052.3062
38	15990.8448
39	15522.9531
40	15424.6233
41	15426.99
42	15264.2689
43	15401.5129
44	15183.3886
45	15306.2849
46	15359.2124
47	15634.7421
48	15435.6537
49	16008.6166
50	15730.8893
51	16246.1763
52	16747.6828
53	16904.7133
54	16913.7177
55	17114.6196
56	17002.1608
57	16843.3132
58	17121.073
59	16518.727
60	16521.9616
61	16231.3329
62	16423.0481
63	16325.9054
64	16318.6711
65	16313.536
66	16421.6047
67	16127.9397
68	16114.9895
69	16563.752
70	16444.915
71	16349.3096
72	16377.0033
73	16242.7684
74	15834.8169
75	15701.1395
76	15582.187
77	15745.3776
78	15972.8516
79	15832.4067
80	15983.3173
81	15917.089
82	16263.4223
83	15815.8402
84	16187.075
85	16049.5705
86	16135.0146
87	16388.9596
88	15922.1339
89	16418.1368
90	15963.4295
91	15979.8123
92	15965.9129
93	16110.3724
94	15872.4555
95	16164.4549
96	15982.5938
97	15942.1113
98	16014.5681
99	15670.3943
100	15460.8476
101	15942.4431
102	15350.902
103	15271.8426
104	15714.5184
105	15977.9828
106	15916.7569
107	16056.0255
108	15859.867
109	16198.8825
110	16295.4365
111	16148.3486
112	16257.4347
113	16163.13
114	16277.648
115	15784.9311
116	15693.767
117	15694.9848
118	15631.78
119	15879.7351
120	15535.4774
121	15424.4628
122	15420.5807
123	15271.6816
124	15219.2745
125	15082.3917
126	15318.5617
127	15261.42
128	15239.0935
129	15297.751
130	15312.3512
131	15199.2665
132	15516.1834
133	15173.7519
134	15018.5027
135	15490.6104
136	15423.1026
137	15756.5485
138	15616.7024
139	16011.9316
140	15916.3893
141	16062.7764
142	15966.8629
143	16082.1939
144	15996.1552
145	16000.2214
146	15790.2189
147	15763.9076
148	15771.1589
149	15708.9435
150	15547.7287
151	15932.9648
152	15749.2654
153	15670.8886
154	15437.8787
155	15338.1999
156	15660.1248
157	15528.2585
158	15841.2772
159	15602.5177
160	15557.7916
161	15691.2705
162	15593.891
163	15572.4839
164	15434.8765
165	15638.9255
166	15528.5973
167	15679.0409
168	15272.4195
169	15668.3728
170	15209.7154
171	15435.7177
172	15363.7639
173	15718.1834
174	15610.7567
175	15627.2642
176	15706.2378
177	15998.6863
178	15560.498
179	15886.1331
180	15601.445
181	15796.6549
182	15848.1425
183	15995.1519
184	15638.8111
185	15677.8444
186	15915.7022
187	15547.4907
188	15817.4178
189	15495.1488
190	15501.1808
191	15721.7282
192	16003.9352
193	15654.4859
194	15809.6428
195	15791.6602
196	15715.6465
197	15541.5202
198	15415.9125
199	15409.7857
200	7703.2495
