Position	Value
-200	141584.9432
-199	283906.5487
-198	282768.0341
-197	283611.9056
-196	282717.2618
-195	283645.2744
-194	282753.537
-193	282553.4984
-192	284278.3963
-191	284095.7178
-190	283752.3754
-189	284396.9401
-188	283806.8319
-187	284821.1558
-186	284518.0832
-185	284465.0007
-184	283391.9231
-183	284582.5297
-182	284583.6353
-181	284399.854
-180	284748.021
-179	284366.7596
-178	285375.3151
-177	286127.5765
-176	287039.0099
-175	286737.0699
-174	287037.8547
-173	287060.1776
-172	288266.2126
-171	287942.777
-170	288339.4798
-169	287943.0573
-168	287710.4814
-167	287685.5687
-166	288632.7661
-165	288968.9563
-164	289310.4843
-163	287940.2473
-162	288419.4926
-161	288301.1535
-160	287290.2009
-159	287211.5071
-158	288533.3413
-157	287146.9516
-156	288226.5186
-155	288825.1178
-154	287868.533
-153	290259.2153
-152	289143.2739
-151	288891.6559
-150	287986.6553
-149	287281.0256
-148	288844.7056
-147	288593.7144
-146	287998.6838
-145	288269.601
-144	290170.9956
-143	288871.6863
-142	288371.2193
-141	289006.9762
-140	286901.0955
-139	287213.7068
-138	287808.7373
-137	288132.6367
-136	287328.256
-135	287207.1727
-134	287289.2044
-133	286915.7481
-132	289521.7634
-131	287442.8538
-130	288808.2509
-129	289454.8442
-128	287482.7962
-127	289087.6946
-126	288663.0538
-125	288923.9047
-124	290417.4582
-123	289789.8218
-122	290799.1742
-121	288742.8854
-120	290215.4176
-119	290997.1414
-118	290196.3337
-117	293792.34
-116	290922.8493
-115	292399.1228
-114	292583.5588
-113	292796.4303
-112	292310.6834
-111	293225.2725
-110	292390.7137
-109	292744.8472
-108	291889.6876
-107	290866.3836
-106	291803.6809
-105	291797.9776
-104	290955.472
-103	290861.5603
-102	290286.2383
-101	291031.2386
-100	289855.7252
-99	291842.5148
-98	292164.7586
-97	292920.2523
-96	292384.8988
-95	293454.7545
-94	292194.5413
-93	292377.7164
-92	293235.772
-91	293169.0747
-90	295784.4825
-89	297276.3511
-88	297086.3716
-87	297041.8897
-86	297716.725
-85	298676.151
-84	299176.784
-83	298354.8422
-82	297363.3145
-81	297306.9414
-80	296299.5459
-79	294494.2341
-78	294881.7055
-77	292006.2347
-76	290958.3172
-75	292481.9606
-74	289668.1781
-73	291734.9794
-72	292187.0166
-71	292679.3066
-70	292680.7385
-69	293549.3637
-68	293234.8675
-67	294716.1178
-66	296959.0348
-65	296291.908
-64	298376.7355
-63	299270.1432
-62	299363.4034
-61	300651.3063
-60	304134.2162
-59	304919.992
-58	307775.7876
-57	309335.7015
-56	309344.6682
-55	311185.3282
-54	308914.0876
-53	307876.9059
-52	303083.2334
-51	300020.7576
-50	294324.5087
-49	293153.7058
-48	291521.8558
-47	290584.9175
-46	289701.6166
-45	290176.7578
-44	289356.0728
-43	289334.9631
-42	291590.0982
-41	290478.7037
-40	292088.4849
-39	292126.3718
-38	294387.9798
-37	295692.818
-36	301320.8581
-35	302305.0527
-34	307040.4277
-33	311546.201
-32	316062.2216
-31	321635.9989
-30	331399.1364
-29	340578.2338
-28	347195.3649
-27	348779.1869
-26	344093.8637
-25	337855.9886
-24	329657.5111
-23	317461.6084
-22	314925.4953
-21	317961.6633
-20	324405.6837
-19	329493.7326
-18	336460.2842
-17	343442.1511
-16	353116.3785
-15	359538.1898
-14	361475.0986
-13	369983.0806
-12	382133.9909
-11	394223.9037
-10	410731.6398
-9	426827.4663
-8	456148.2948
-7	476374.2515
-6	506552.4326
-5	550008.5524
-4	562657.7958
-3	605536.416
-2	747219.9563
-1	744684.1602
0	2336958.091
1	744684.1602
2	747219.9563
3	605536.416
4	562657.7958
5	550008.5524
6	506552.4326
7	476374.2515
8	456148.2948
9	426827.4663
10	410731.6398
11	394223.9037
12	382133.9909
13	369983.0806
14	361475.0986
15	359538.1898
16	353116.3785
17	343442.1511
18	336460.2842
19	329493.7326
20	324405.6837
21	317961.6633
22	314925.4953
23	317461.6084
24	329657.5111
25	337855.9886
26	344093.8637
27	348779.1869
28	347195.3649
29	340578.2338
30	331399.1364
31	321635.9989
32	316062.2216
33	311546.201
34	307040.4277
35	302305.0527
36	301320.8581
37	295692.818
38	294387.9798
39	292126.3718
40	292088.4849
41	290478.7037
42	291590.0982
43	289334.9631
44	289356.0728
45	290176.7578
46	289701.6166
47	290584.9175
48	291521.8558
49	293153.7058
50	294324.5087
51	300020.7576
52	303083.2334
53	307876.9059
54	308914.0876
55	311185.3282
56	309344.6682
57	309335.7015
58	307775.7876
59	304919.992
60	304134.2162
61	300651.3063
62	299363.4034
63	299270.1432
64	298376.7355
65	296291.908
66	296959.0348
67	294716.1178
68	293234.8675
69	293549.3637
70	292680.7385
71	292679.3066
72	292187.0166
73	291734.9794
74	289668.1781
75	292481.9606
76	290958.3172
77	292006.2347
78	294881.7055
79	294494.2341
80	296299.5459
81	297306.9414
82	297363.3145
83	298354.8422
84	299176.784
85	298676.151
86	297716.725
87	297041.8897
88	297086.3716
89	297276.3511
90	295784.4825
91	293169.0747
92	293235.772
93	292377.7164
94	292194.5413
95	293454.7545
96	292384.8988
97	292920.2523
98	292164.7586
99	291842.5148
100	289855.7252
101	291031.2386
102	290286.2383
103	290861.5603
104	290955.472
105	291797.9776
106	291803.6809
107	290866.3836
108	291889.6876
109	292744.8472
110	292390.7137
111	293225.2725
112	292310.6834
113	292796.4303
114	292583.5588
115	292399.1228
116	290922.8493
117	293792.34
118	290196.3337
119	290997.1414
120	290215.4176
121	288742.8854
122	290799.1742
123	289789.8218
124	290417.4582
125	288923.9047
126	288663.0538
127	289087.6946
128	287482.7962
129	289454.8442
130	288808.2509
131	287442.8538
132	289521.7634
133	286915.7481
134	287289.2044
135	287207.1727
136	287328.256
137	288132.6367
138	287808.7373
139	287213.7068
140	286901.0955
141	289006.9762
142	288371.2193
143	288871.6863
144	290170.9956
145	288269.601
146	287998.6838
147	288593.7144
148	288844.7056
149	287281.0256
150	287986.6553
151	288891.6559
152	289143.2739
153	290259.2153
154	287868.533
155	288825.1178
156	288226.5186
157	287146.9516
158	288533.3413
159	287211.5071
160	287290.2009
161	288301.1535
162	288419.4926
163	287940.2473
164	289310.4843
165	288968.9563
166	288632.7661
167	287685.5687
168	287710.4814
169	287943.0573
170	288339.4798
171	287942.777
172	288266.2126
173	287060.1776
174	287037.8547
175	286737.0699
176	287039.0099
177	286127.5765
178	285375.3151
179	284366.7596
180	284748.021
181	284399.854
182	284583.6353
183	284582.5297
184	283391.9231
185	284465.0007
186	284518.0832
187	284821.1558
188	283806.8319
189	284396.9401
190	283752.3754
191	284095.7178
192	284278.3963
193	282553.4984
194	282753.537
195	283645.2744
196	282717.2618
197	283611.9056
198	282768.0341
199	283906.5487
200	141584.9432
