Position	Value
-200	115.7599
-199	237.3778
-198	248.8672
-197	232.4024
-196	233.4061
-195	240.4768
-194	245.7942
-193	238.9752
-192	251.625
-191	256.0181
-190	243.4863
-189	245.376
-188	243.0054
-187	245.0612
-186	244.421
-185	240.5946
-184	241.4644
-183	237.3234
-182	244.5757
-181	228.9812
-180	245.0414
-179	235.5581
-178	255.8273
-177	255.0561
-176	245.3367
-175	246.0322
-174	247.545
-173	232.794
-172	238.8232
-171	240.625
-170	231.573
-169	236.5272
-168	256.5787
-167	243.6947
-166	267.5926
-165	274.7705
-164	260.3028
-163	263.4434
-162	256.0061
-161	254.731
-160	239.4351
-159	245.5156
-158	236.8214
-157	244.2387
-156	245.8016
-155	251.2306
-154	254.8196
-153	262.5285
-152	250.7715
-151	238.4843
-150	238.2359
-149	237.1917
-148	248.2626
-147	247.0787
-146	236.5596
-145	260.1897
-144	260.8724
-143	260.8977
-142	239.5697
-141	260.1585
-140	247.4833
-139	237.7433
-138	232.5378
-137	241.4026
-136	249.2031
-135	245.586
-134	255.0525
-133	247.2442
-132	254.621
-131	254.6843
-130	240.8779
-129	247.045
-128	250.0213
-127	258.9692
-126	248.2103
-125	267.6061
-124	248.8648
-123	253.1495
-122	270.5805
-121	273.0074
-120	270.9898
-119	263.8665
-118	246.2409
-117	271.4916
-116	254.8077
-115	265.4808
-114	252.6652
-113	266.0212
-112	261.6591
-111	279.3574
-110	262.8687
-109	275.91
-108	278.5113
-107	265.1534
-106	270.4076
-105	246.7187
-104	277.3707
-103	255.6948
-102	269.2641
-101	262.707
-100	274.5695
-99	269.7221
-98	256.3247
-97	254.1328
-96	238.2997
-95	241.599
-94	255.4041
-93	245.3057
-92	268.6086
-91	280.9644
-90	260.9536
-89	257.4061
-88	275.2076
-87	254.0612
-86	246.3731
-85	263.9036
-84	269.4112
-83	261.7196
-82	268.5717
-81	269.1562
-80	280.7955
-79	277.8659
-78	261.0157
-77	250.0483
-76	262.0097
-75	258.6328
-74	264.9988
-73	279.7423
-72	267.7984
-71	261.7709
-70	292.9247
-69	285.4766
-68	293.9146
-67	315.5505
-66	285.0621
-65	295.9104
-64	277.2648
-63	267.8458
-62	255.2106
-61	255.5978
-60	271.6739
-59	279.1842
-58	271.0697
-57	275.3277
-56	286.7559
-55	272.9757
-54	273.276
-53	279.2602
-52	270.0548
-51	280.6563
-50	269.4452
-49	279.5688
-48	296.4825
-47	295.6551
-46	311.8656
-45	309.5136
-44	319.8907
-43	316.5585
-42	316.6891
-41	299.2026
-40	310.068
-39	298.1502
-38	304.7879
-37	304.9395
-36	294.8499
-35	327.4191
-34	333.9984
-33	342.8729
-32	323.4545
-31	300.7639
-30	302.8975
-29	328.1355
-28	328.5272
-27	315.9823
-26	293.7263
-25	300.9514
-24	308.8111
-23	311.728
-22	316.845
-21	313.0085
-20	308.6479
-19	335.3283
-18	351.2039
-17	362.8955
-16	373.0074
-15	361.0421
-14	393.6193
-13	436.9507
-12	410.2961
-11	419.7699
-10	429.0377
-9	412.6819
-8	404.0766
-7	407.6198
-6	433.434
-5	480.3336
-4	702.2252
-3	1088.5513
-2	1678.0136
-1	2494.5465
0	30807.9364
1	2494.5465
2	1678.0136
3	1088.5513
4	702.2252
5	480.3336
6	433.434
7	407.6198
8	404.0766
9	412.6819
10	429.0377
11	419.7699
12	410.2961
13	436.9507
14	393.6193
15	361.0421
16	373.0074
17	362.8955
18	351.2039
19	335.3283
20	308.6479
21	313.0085
22	316.845
23	311.728
24	308.8111
25	300.9514
26	293.7263
27	315.9823
28	328.5272
29	328.1355
30	302.8975
31	300.7639
32	323.4545
33	342.8729
34	333.9984
35	327.4191
36	294.8499
37	304.9395
38	304.7879
39	298.1502
40	310.068
41	299.2026
42	316.6891
43	316.5585
44	319.8907
45	309.5136
46	311.8656
47	295.6551
48	296.4825
49	279.5688
50	269.4452
51	280.6563
52	270.0548
53	279.2602
54	273.276
55	272.9757
56	286.7559
57	275.3277
58	271.0697
59	279.1842
60	271.6739
61	255.5978
62	255.2106
63	267.8458
64	277.2648
65	295.9104
66	285.0621
67	315.5505
68	293.9146
69	285.4766
70	292.9247
71	261.7709
72	267.7984
73	279.7423
74	264.9988
75	258.6328
76	262.0097
77	250.0483
78	261.0157
79	277.8659
80	280.7955
81	269.1562
82	268.5717
83	261.7196
84	269.4112
85	263.9036
86	246.3731
87	254.0612
88	275.2076
89	257.4061
90	260.9536
91	280.9644
92	268.6086
93	245.3057
94	255.4041
95	241.599
96	238.2997
97	254.1328
98	256.3247
99	269.7221
100	274.5695
101	262.707
102	269.2641
103	255.6948
104	277.3707
105	246.7187
106	270.4076
107	265.1534
108	278.5113
109	275.91
110	262.8687
111	279.3574
112	261.6591
113	266.0212
114	252.6652
115	265.4808
116	254.8077
117	271.4916
118	246.2409
119	263.8665
120	270.9898
121	273.0074
122	270.5805
123	253.1495
124	248.8648
125	267.6061
126	248.2103
127	258.9692
128	250.0213
129	247.045
130	240.8779
131	254.6843
132	254.621
133	247.2442
134	255.0525
135	245.586
136	249.2031
137	241.4026
138	232.5378
139	237.7433
140	247.4833
141	260.1585
142	239.5697
143	260.8977
144	260.8724
145	260.1897
146	236.5596
147	247.0787
148	248.2626
149	237.1917
150	238.2359
151	238.4843
152	250.7715
153	262.5285
154	254.8196
155	251.2306
156	245.8016
157	244.2387
158	236.8214
159	245.5156
160	239.4351
161	254.731
162	256.0061
163	263.4434
164	260.3028
165	274.7705
166	267.5926
167	243.6947
168	256.5787
169	236.5272
170	231.573
171	240.625
172	238.8232
173	232.794
174	247.545
175	246.0322
176	245.3367
177	255.0561
178	255.8273
179	235.5581
180	245.0414
181	228.9812
182	244.5757
183	237.3234
184	241.4644
185	240.5946
186	244.421
187	245.0612
188	243.0054
189	245.376
190	243.4863
191	256.0181
192	251.625
193	238.9752
194	245.7942
195	240.4768
196	233.4061
197	232.4024
198	248.8672
199	237.3778
200	115.7599
