Position	Value
-200	32312.8793
-199	65291.6451
-198	64432.4516
-197	64826.7859
-196	64717.7021
-195	64811.3423
-194	65092.5117
-193	64697.5149
-192	64776.304
-191	64744.2763
-190	64705.5786
-189	65294.9851
-188	64951.9046
-187	65236.8015
-186	65292.6987
-185	64782.6352
-184	65131.6232
-183	64741.461
-182	64468.8611
-181	64931.6903
-180	65028.524
-179	65039.5902
-178	65466.1815
-177	65646.8627
-176	65313.4258
-175	65902.4901
-174	66116.3359
-173	66123.3174
-172	65389.0096
-171	65612.72
-170	65743.8421
-169	66247.4066
-168	66084.6693
-167	65980.1996
-166	66020.1496
-165	66933.987
-164	66033.5871
-163	66186.9605
-162	65624.7778
-161	65328.8488
-160	65153.8661
-159	65242.4673
-158	65575.585
-157	64956.44
-156	64870.7652
-155	64701.749
-154	65113.9437
-153	66462.1573
-152	65690.4504
-151	65350.9461
-150	65469.7411
-149	65795.5548
-148	65856.7039
-147	66487.8912
-146	66202.354
-145	66501.0608
-144	66676.8268
-143	66855.6249
-142	66287.8317
-141	66558.9282
-140	66231.1512
-139	66064.2156
-138	66406.8712
-137	66326.4348
-136	66121.8038
-135	65482.8394
-134	66178.6528
-133	66129.5463
-132	66444.2001
-131	66195.2647
-130	66060.2214
-129	66139.3808
-128	65855.8208
-127	66355.4682
-126	65746.5878
-125	65881.4235
-124	65472.8766
-123	65881.1941
-122	66283.974
-121	66415.912
-120	66188.7833
-119	66632.4354
-118	66138.5671
-117	67447.8886
-116	66808.4547
-115	66897.991
-114	67797.3242
-113	67358.3519
-112	67262.7085
-111	67137.3616
-110	67063.3526
-109	66422.4097
-108	66595.3422
-107	67276.7131
-106	66359.78
-105	66220.2886
-104	65152.8703
-103	65240.6871
-102	65582.5616
-101	66265.6404
-100	65655.9902
-99	65750.6495
-98	65906.805
-97	65590.3181
-96	66233.2188
-95	65732.3828
-94	65916.2613
-93	65924.793
-92	66458.3545
-91	65980.5906
-90	67186.3957
-89	67746.7803
-88	66932.7652
-87	67573.9098
-86	67935.0517
-85	67552.1967
-84	68372.4875
-83	68070.8012
-82	68054.4855
-81	68319.8302
-80	67969.7658
-79	67757.7901
-78	67322.9041
-77	67154.4964
-76	66216.6625
-75	66728.239
-74	65519.1625
-73	66341.807
-72	65995.2072
-71	66044.9437
-70	66882.4056
-69	66170.6261
-68	66696.7046
-67	66562.4663
-66	67103.8536
-65	66969.3461
-64	67635.2588
-63	68323.1188
-62	67554.7356
-61	68546.7078
-60	69280.3181
-59	69329.6566
-58	70317.2579
-57	70106.09
-56	70259.0373
-55	71006.9709
-54	71349.4208
-53	70572.8146
-52	70173.2239
-51	69085.4049
-50	67301.1451
-49	66652.938
-48	65739.4229
-47	65890.5211
-46	66025.3612
-45	65728.4621
-44	65320.3848
-43	65023.8387
-42	65074.229
-41	65026.0007
-40	65480.2937
-39	65562.4079
-38	65999.5891
-37	67143.6442
-36	68923.5977
-35	69019.5789
-34	69241.4411
-33	70721.6636
-32	72375.4886
-31	73174.5157
-30	75987.5843
-29	78835.9532
-28	81664.6357
-27	82806.3061
-26	81169.8877
-25	78878.8152
-24	74785.7448
-23	70457.3365
-22	69138.4569
-21	71437.2451
-20	72921.2941
-19	74634.0514
-18	76419.2482
-17	78620.3746
-16	80850.2625
-15	82565.321
-14	82742.9039
-13	86301.0492
-12	89213.7116
-11	92680.8193
-10	97774.0155
-9	102601.6233
-8	112427.8709
-7	117217.7407
-6	127988.1742
-5	142940.6103
-4	149552.6895
-3	167229.9271
-2	218737.4823
-1	223756.2158
0	952198.5418
1	223756.2158
2	218737.4823
3	167229.9271
4	149552.6895
5	142940.6103
6	127988.1742
7	117217.7407
8	112427.8709
9	102601.6233
10	97774.0155
11	92680.8193
12	89213.7116
13	86301.0492
14	82742.9039
15	82565.321
16	80850.2625
17	78620.3746
18	76419.2482
19	74634.0514
20	72921.2941
21	71437.2451
22	69138.4569
23	70457.3365
24	74785.7448
25	78878.8152
26	81169.8877
27	82806.3061
28	81664.6357
29	78835.9532
30	75987.5843
31	73174.5157
32	72375.4886
33	70721.6636
34	69241.4411
35	69019.5789
36	68923.5977
37	67143.6442
38	65999.5891
39	65562.4079
40	65480.2937
41	65026.0007
42	65074.229
43	65023.8387
44	65320.3848
45	65728.4621
46	66025.3612
47	65890.5211
48	65739.4229
49	66652.938
50	67301.1451
51	69085.4049
52	70173.2239
53	70572.8146
54	71349.4208
55	71006.9709
56	70259.0373
57	70106.09
58	70317.2579
59	69329.6566
60	69280.3181
61	68546.7078
62	67554.7356
63	68323.1188
64	67635.2588
65	66969.3461
66	67103.8536
67	66562.4663
68	66696.7046
69	66170.6261
70	66882.4056
71	66044.9437
72	65995.2072
73	66341.807
74	65519.1625
75	66728.239
76	66216.6625
77	67154.4964
78	67322.9041
79	67757.7901
80	67969.7658
81	68319.8302
82	68054.4855
83	68070.8012
84	68372.4875
85	67552.1967
86	67935.0517
87	67573.9098
88	66932.7652
89	67746.7803
90	67186.3957
91	65980.5906
92	66458.3545
93	65924.793
94	65916.2613
95	65732.3828
96	66233.2188
97	65590.3181
98	65906.805
99	65750.6495
100	65655.9902
101	66265.6404
102	65582.5616
103	65240.6871
104	65152.8703
105	66220.2886
106	66359.78
107	67276.7131
108	66595.3422
109	66422.4097
110	67063.3526
111	67137.3616
112	67262.7085
113	67358.3519
114	67797.3242
115	66897.991
116	66808.4547
117	67447.8886
118	66138.5671
119	66632.4354
120	66188.7833
121	66415.912
122	66283.974
123	65881.1941
124	65472.8766
125	65881.4235
126	65746.5878
127	66355.4682
128	65855.8208
129	66139.3808
130	66060.2214
131	66195.2647
132	66444.2001
133	66129.5463
134	66178.6528
135	65482.8394
136	66121.8038
137	66326.4348
138	66406.8712
139	66064.2156
140	66231.1512
141	66558.9282
142	66287.8317
143	66855.6249
144	66676.8268
145	66501.0608
146	66202.354
147	66487.8912
148	65856.7039
149	65795.5548
150	65469.7411
151	65350.9461
152	65690.4504
153	66462.1573
154	65113.9437
155	64701.749
156	64870.7652
157	64956.44
158	65575.585
159	65242.4673
160	65153.8661
161	65328.8488
162	65624.7778
163	66186.9605
164	66033.5871
165	66933.987
166	66020.1496
167	65980.1996
168	66084.6693
169	66247.4066
170	65743.8421
171	65612.72
172	65389.0096
173	66123.3174
174	66116.3359
175	65902.4901
176	65313.4258
177	65646.8627
178	65466.1815
179	65039.5902
180	65028.524
181	64931.6903
182	64468.8611
183	64741.461
184	65131.6232
185	64782.6352
186	65292.6987
187	65236.8015
188	64951.9046
189	65294.9851
190	64705.5786
191	64744.2763
192	64776.304
193	64697.5149
194	65092.5117
195	64811.3423
196	64717.7021
197	64826.7859
198	64432.4516
199	65291.6451
200	32312.8793
