Position	Value
-200	384223.7678
-199	770340.7591
-198	768156.8739
-197	770445.1755
-196	768834.109
-195	769007.3676
-194	772531.1587
-193	769902.7889
-192	772483.9918
-191	769080.3888
-190	773272.8382
-189	773382.6202
-188	771326.3462
-187	774181.6318
-186	772927.6893
-185	774655.1653
-184	774893.4169
-183	774065.7071
-182	775552.5214
-181	774921.0911
-180	779564.8222
-179	778876.8821
-178	778047.806
-177	782414.5825
-176	782182.4488
-175	781913.4505
-174	785510.3521
-173	784482.4596
-172	785706.5962
-171	785872.0116
-170	789003.3854
-169	790482.0196
-168	791675.3911
-167	790429.1473
-166	791981.9241
-165	794086.6187
-164	794042.4444
-163	793948.9409
-162	795390.7043
-161	797519.3527
-160	795680.5032
-159	796874.2028
-158	796649.4107
-157	796975.0613
-156	798904.2549
-155	799174.3142
-154	799674.5409
-153	799361.0197
-152	801117.47
-151	799127.1334
-150	799752.1666
-149	799607.6555
-148	802235.67
-147	801612.5134
-146	802260.0255
-145	802995.6195
-144	803643.1668
-143	803052.7417
-142	802649.2815
-141	804107.9306
-140	804448.4233
-139	804210.1168
-138	803278.2679
-137	803427.3331
-136	803677.0062
-135	805199.1813
-134	806007.2383
-133	805339.9167
-132	810948.417
-131	809375.8087
-130	810100.0857
-129	808789.1449
-128	809254.0966
-127	809957.0856
-126	811207.6206
-125	811304.7512
-124	812530.1132
-123	813888.599
-122	815337.9353
-121	816252.2061
-120	817900.0825
-119	815035.3437
-118	814720.0981
-117	815872.2308
-116	816070.7882
-115	815955.9463
-114	817967.7333
-113	819268.9808
-112	819467.8711
-111	818184.1933
-110	820765.7463
-109	818011.9283
-108	820041.4791
-107	819760.8693
-106	821168.4047
-105	821769.4352
-104	819585.1575
-103	822366.0125
-102	822651.445
-101	826082.0245
-100	825143.9835
-99	826703.626
-98	827711.9663
-97	828482.2016
-96	833740.2421
-95	831840.1271
-94	833864.4965
-93	837171.5977
-92	837567.6909
-91	838622.4109
-90	841085.9039
-89	843023.8365
-88	843070.0408
-87	842502.3085
-86	844272.5421
-85	843717.4763
-84	844636.3854
-83	844234.0326
-82	842140.7352
-81	842957.5055
-80	842187.3352
-79	843197.1305
-78	846901.9416
-77	847108.028
-76	848660.1276
-75	849759.61
-74	851505.0815
-73	848578.5145
-72	853190.0578
-71	850778.825
-70	851453.3128
-69	853499.2943
-68	853465.3155
-67	855139.1597
-66	856460.489
-65	859214.0616
-64	861292.8199
-63	863029.0367
-62	862842.0164
-61	865134.314
-60	866821.8833
-59	868988.8984
-58	869683.4256
-57	872625.6781
-56	867702.1551
-55	866705.9392
-54	864373.3134
-53	864143.0581
-52	862784.8531
-51	865007.8795
-50	865347.7465
-49	868676.4714
-48	871052.7789
-47	873672.1654
-46	875287.2312
-45	875531.3721
-44	875531.27
-43	873986.5734
-42	878501.5153
-41	876334.5567
-40	879661.6767
-39	882740.6826
-38	883160.8431
-37	885069.1131
-36	890466.1504
-35	891917.1731
-34	897560.7547
-33	902552.4377
-32	912154.3781
-31	918225.7571
-30	927637.4902
-29	928108.4801
-28	925003.7841
-27	914633.7772
-26	908704.1427
-25	917314.4228
-24	925842.8036
-23	934570.683
-22	948601.404
-21	966121.5412
-20	981106.8314
-19	994400.4666
-18	1007711.1735
-17	1010835.1499
-16	1020965.1315
-15	1038352.9075
-14	1051887.5721
-13	1065141.5251
-12	1091221.7832
-11	1093341.4043
-10	1122561.2962
-9	1142788.2445
-8	1153132.882
-7	1162959.611
-6	1209900.7286
-5	1239232.4437
-4	1229754.9402
-3	1249743.8031
-2	1375617.0042
-1	1324989.6586
0	3333269.1418
1	1324989.6586
2	1375617.0042
3	1249743.8031
4	1229754.9402
5	1239232.4437
6	1209900.7286
7	1162959.611
8	1153132.882
9	1142788.2445
10	1122561.2962
11	1093341.4043
12	1091221.7832
13	1065141.5251
14	1051887.5721
15	1038352.9075
16	1020965.1315
17	1010835.1499
18	1007711.1735
19	994400.4666
20	981106.8314
21	966121.5412
22	948601.404
23	934570.683
24	925842.8036
25	917314.4228
26	908704.1427
27	914633.7772
28	925003.7841
29	928108.4801
30	927637.4902
31	918225.7571
32	912154.3781
33	902552.4377
34	897560.7547
35	891917.1731
36	890466.1504
37	885069.1131
38	883160.8431
39	882740.6826
40	879661.6767
41	876334.5567
42	878501.5153
43	873986.5734
44	875531.27
45	875531.3721
46	875287.2312
47	873672.1654
48	871052.7789
49	868676.4714
50	865347.7465
51	865007.8795
52	862784.8531
53	864143.0581
54	864373.3134
55	866705.9392
56	867702.1551
57	872625.6781
58	869683.4256
59	868988.8984
60	866821.8833
61	865134.314
62	862842.0164
63	863029.0367
64	861292.8199
65	859214.0616
66	856460.489
67	855139.1597
68	853465.3155
69	853499.2943
70	851453.3128
71	850778.825
72	853190.0578
73	848578.5145
74	851505.0815
75	849759.61
76	848660.1276
77	847108.028
78	846901.9416
79	843197.1305
80	842187.3352
81	842957.5055
82	842140.7352
83	844234.0326
84	844636.3854
85	843717.4763
86	844272.5421
87	842502.3085
88	843070.0408
89	843023.8365
90	841085.9039
91	838622.4109
92	837567.6909
93	837171.5977
94	833864.4965
95	831840.1271
96	833740.2421
97	828482.2016
98	827711.9663
99	826703.626
100	825143.9835
101	826082.0245
102	822651.445
103	822366.0125
104	819585.1575
105	821769.4352
106	821168.4047
107	819760.8693
108	820041.4791
109	818011.9283
110	820765.7463
111	818184.1933
112	819467.8711
113	819268.9808
114	817967.7333
115	815955.9463
116	816070.7882
117	815872.2308
118	814720.0981
119	815035.3437
120	817900.0825
121	816252.2061
122	815337.9353
123	813888.599
124	812530.1132
125	811304.7512
126	811207.6206
127	809957.0856
128	809254.0966
129	808789.1449
130	810100.0857
131	809375.8087
132	810948.417
133	805339.9167
134	806007.2383
135	805199.1813
136	803677.0062
137	803427.3331
138	803278.2679
139	804210.1168
140	804448.4233
141	804107.9306
142	802649.2815
143	803052.7417
144	803643.1668
145	802995.6195
146	802260.0255
147	801612.5134
148	802235.67
149	799607.6555
150	799752.1666
151	799127.1334
152	801117.47
153	799361.0197
154	799674.5409
155	799174.3142
156	798904.2549
157	796975.0613
158	796649.4107
159	796874.2028
160	795680.5032
161	797519.3527
162	795390.7043
163	793948.9409
164	794042.4444
165	794086.6187
166	791981.9241
167	790429.1473
168	791675.3911
169	790482.0196
170	789003.3854
171	785872.0116
172	785706.5962
173	784482.4596
174	785510.3521
175	781913.4505
176	782182.4488
177	782414.5825
178	778047.806
179	778876.8821
180	779564.8222
181	774921.0911
182	775552.5214
183	774065.7071
184	774893.4169
185	774655.1653
186	772927.6893
187	774181.6318
188	771326.3462
189	773382.6202
190	773272.8382
191	769080.3888
192	772483.9918
193	769902.7889
194	772531.1587
195	769007.3676
196	768834.109
197	770445.1755
198	768156.8739
199	770340.7591
200	384223.7678
