Position	Value
-200	130638.8946
-199	261205.7934
-198	259932.6176
-197	261147.0118
-196	260231.3473
-195	260775.4337
-194	260395.9006
-193	259939.3289
-192	262322.2245
-191	261256.7833
-190	261225.3305
-189	261685.0242
-188	260906.8144
-187	262432.2197
-186	261627.7655
-185	260852.1319
-184	259781.6792
-183	261161.6709
-182	260439.3435
-181	261948.9574
-180	261379.3437
-179	262899.5346
-178	262333.2561
-177	263361.4807
-176	262136.1734
-175	263570.0248
-174	262963.0908
-173	262893.2048
-172	263470.8353
-171	263282.9443
-170	264011.1108
-169	263413.7744
-168	263785.0645
-167	264501.9946
-166	264090.7768
-165	264506.7436
-164	264220.0518
-163	264266.0307
-162	263339.2752
-161	263594.1406
-160	262474.0992
-159	262314.9767
-158	263087.0591
-157	262843.4491
-156	263773.2802
-155	264440.6479
-154	263969.7817
-153	266131.6731
-152	264077.8277
-151	264669.8316
-150	263470.0678
-149	263706.1897
-148	264480.7456
-147	265420.6997
-146	263690.5711
-145	264337.5935
-144	265344.2223
-143	265386.3312
-142	264431.6232
-141	265570.6857
-140	264653.5976
-139	264259.2428
-138	265725.5212
-137	264428.0074
-136	265030.7095
-135	264686.3208
-134	265371.629
-133	264213.7435
-132	267340.1466
-131	265604.868
-130	264639.6223
-129	265339.3265
-128	264715.061
-127	264464.5849
-126	265836.3838
-125	263811.2059
-124	265790.801
-123	264058.4893
-122	265212.0132
-121	266088.0223
-120	266225.8064
-119	268444.9541
-118	267284.8358
-117	270366.7007
-116	268919.266
-115	268658.5244
-114	270391.2883
-113	269790.9151
-112	270277.3699
-111	270034.1352
-110	269011.9864
-109	268183.512
-108	268390.7867
-107	268255.74
-106	268213.215
-105	268340.2338
-104	266767.7623
-103	267126.1064
-102	267177.8211
-101	267903.1385
-100	268109.9794
-99	270194.2447
-98	269547.74
-97	269572.4633
-96	269133.2533
-95	268983.7668
-94	268935.5714
-93	270356.0048
-92	270437.4796
-91	269835.576
-90	270990.3898
-89	272736.6464
-88	272794.2844
-87	273174.7354
-86	273112.1912
-85	273431.1922
-84	274259.406
-83	274050.4465
-82	273417.8064
-81	273947.8396
-80	271857.6994
-79	270746.0002
-78	269842.3047
-77	268123.9566
-76	267954.774
-75	267863.3619
-74	265798.232
-73	267025.9761
-72	266893.6689
-71	268230.7496
-70	267405.6977
-69	268566.8486
-68	268828.6
-67	268079.6242
-66	270637.6256
-65	271071.5116
-64	272447.9864
-63	274211.3965
-62	274209.3812
-61	275607.9831
-60	277568.0129
-59	277798.9002
-58	280294.9328
-57	280696.5275
-56	281710.3324
-55	283620.1514
-54	281099.2456
-53	279565.7141
-52	276566.8379
-51	275279.1225
-50	272016.7692
-49	269480.6018
-48	268738.145
-47	268358.9754
-46	266513.0966
-45	268242.2994
-44	266934.8178
-43	266639.8048
-42	268337.4558
-41	267330.8832
-40	269591.7014
-39	269366.1759
-38	271600.3791
-37	272927.1279
-36	277733.2347
-35	278680.4646
-34	281674.601
-33	284862.0259
-32	288800.287
-31	292203.8153
-30	300244.6276
-29	306130.1249
-28	312043.5206
-27	314522.5042
-26	309434.2339
-25	307178.5563
-24	301355.1938
-23	292434.3958
-22	290430.153
-21	294083.0063
-20	299796.1379
-19	306046.4417
-18	312246.1724
-17	319460.3169
-16	326971.7107
-15	334191.7636
-14	336661.1195
-13	345943.0219
-12	356461.7584
-11	367264.9912
-10	385074.2492
-9	402947.0198
-8	430921.9618
-7	449356.9888
-6	474827.9636
-5	514895.1166
-4	530764.8474
-3	570496.7056
-2	701259.2163
-1	704852.669
0	2123459.3333
1	704852.669
2	701259.2163
3	570496.7056
4	530764.8474
5	514895.1166
6	474827.9636
7	449356.9888
8	430921.9618
9	402947.0198
10	385074.2492
11	367264.9912
12	356461.7584
13	345943.0219
14	336661.1195
15	334191.7636
16	326971.7107
17	319460.3169
18	312246.1724
19	306046.4417
20	299796.1379
21	294083.0063
22	290430.153
23	292434.3958
24	301355.1938
25	307178.5563
26	309434.2339
27	314522.5042
28	312043.5206
29	306130.1249
30	300244.6276
31	292203.8153
32	288800.287
33	284862.0259
34	281674.601
35	278680.4646
36	277733.2347
37	272927.1279
38	271600.3791
39	269366.1759
40	269591.7014
41	267330.8832
42	268337.4558
43	266639.8048
44	266934.8178
45	268242.2994
46	266513.0966
47	268358.9754
48	268738.145
49	269480.6018
50	272016.7692
51	275279.1225
52	276566.8379
53	279565.7141
54	281099.2456
55	283620.1514
56	281710.3324
57	280696.5275
58	280294.9328
59	277798.9002
60	277568.0129
61	275607.9831
62	274209.3812
63	274211.3965
64	272447.9864
65	271071.5116
66	270637.6256
67	268079.6242
68	268828.6
69	268566.8486
70	267405.6977
71	268230.7496
72	266893.6689
73	267025.9761
74	265798.232
75	267863.3619
76	267954.774
77	268123.9566
78	269842.3047
79	270746.0002
80	271857.6994
81	273947.8396
82	273417.8064
83	274050.4465
84	274259.406
85	273431.1922
86	273112.1912
87	273174.7354
88	272794.2844
89	272736.6464
90	270990.3898
91	269835.576
92	270437.4796
93	270356.0048
94	268935.5714
95	268983.7668
96	269133.2533
97	269572.4633
98	269547.74
99	270194.2447
100	268109.9794
101	267903.1385
102	267177.8211
103	267126.1064
104	266767.7623
105	268340.2338
106	268213.215
107	268255.74
108	268390.7867
109	268183.512
110	269011.9864
111	270034.1352
112	270277.3699
113	269790.9151
114	270391.2883
115	268658.5244
116	268919.266
117	270366.7007
118	267284.8358
119	268444.9541
120	266225.8064
121	266088.0223
122	265212.0132
123	264058.4893
124	265790.801
125	263811.2059
126	265836.3838
127	264464.5849
128	264715.061
129	265339.3265
130	264639.6223
131	265604.868
132	267340.1466
133	264213.7435
134	265371.629
135	264686.3208
136	265030.7095
137	264428.0074
138	265725.5212
139	264259.2428
140	264653.5976
141	265570.6857
142	264431.6232
143	265386.3312
144	265344.2223
145	264337.5935
146	263690.5711
147	265420.6997
148	264480.7456
149	263706.1897
150	263470.0678
151	264669.8316
152	264077.8277
153	266131.6731
154	263969.7817
155	264440.6479
156	263773.2802
157	262843.4491
158	263087.0591
159	262314.9767
160	262474.0992
161	263594.1406
162	263339.2752
163	264266.0307
164	264220.0518
165	264506.7436
166	264090.7768
167	264501.9946
168	263785.0645
169	263413.7744
170	264011.1108
171	263282.9443
172	263470.8353
173	262893.2048
174	262963.0908
175	263570.0248
176	262136.1734
177	263361.4807
178	262333.2561
179	262899.5346
180	261379.3437
181	261948.9574
182	260439.3435
183	261161.6709
184	259781.6792
185	260852.1319
186	261627.7655
187	262432.2197
188	260906.8144
189	261685.0242
190	261225.3305
191	261256.7833
192	262322.2245
193	259939.3289
194	260395.9006
195	260775.4337
196	260231.3473
197	261147.0118
198	259932.6176
199	261205.7934
200	130638.8946
