Position	Value
-200	9.8783
-199	13.8932
-198	18.3316
-197	19.4504
-196	15.6247
-195	20.0302
-194	16.5214
-193	17.5141
-192	16.8559
-191	20.7393
-190	14.0477
-189	14.0305
-188	18.6696
-187	22.1727
-186	22.1498
-185	19.7697
-184	19.0459
-183	14.832
-182	12.9747
-181	13.9143
-180	20.5205
-179	9.5171
-178	14.2719
-177	19.438
-176	17.171
-175	20.912
-174	22.4655
-173	15.4705
-172	17.024
-171	19.3795
-170	17.093
-169	15.8713
-168	17.5152
-167	19.7245
-166	13.8932
-165	22.1497
-164	13.1036
-163	15.9999
-162	13.6944
-161	19.0102
-160	16.8386
-159	19.7615
-158	15.5022
-157	18.7513
-156	17.3204
-155	18.3596
-154	17.0482
-153	16.5536
-152	23.3281
-151	21.568
-150	18.1454
-149	20.8647
-148	17.6559
-147	17.9322
-146	17.2171
-145	19.1497
-144	20.1211
-143	17.3355
-142	23.7193
-141	23.4931
-140	15.5359
-139	28.2922
-138	18.1594
-137	22.6916
-136	21.9654
-135	17.6519
-134	23.6799
-133	21.1431
-132	19.5976
-131	16.4081
-130	23.4488
-129	21.5613
-128	18.6093
-127	16.0311
-126	17.7198
-125	15.3935
-124	14.2066
-123	20.81
-122	16.106
-121	23.6767
-120	17.4704
-119	16.6542
-118	17.3202
-117	22.4983
-116	16.1965
-115	19.8835
-114	15.7333
-113	19.1248
-112	17.7772
-111	19.6998
-110	18.4114
-109	23.0385
-108	15.8131
-107	13.8343
-106	14.4974
-105	15.0493
-104	14.9778
-103	17.6659
-102	16.0785
-101	16.9884
-100	14.888
-99	16.9021
-98	18.1626
-97	25.443
-96	19.3877
-95	11.9144
-94	20.5043
-93	19.5345
-92	15.2287
-91	15.5395
-90	18.1755
-89	15.4322
-88	17.7638
-87	21.0763
-86	18.6518
-85	13.6664
-84	13.2304
-83	16.1233
-82	14.055
-81	19.0496
-80	19.267
-79	17.0466
-78	24.4108
-77	15.3828
-76	18.4278
-75	19.3731
-74	19.0598
-73	19.8651
-72	19.9792
-71	20.7916
-70	22.6233
-69	12.7252
-68	24.505
-67	21.0867
-66	25.1346
-65	20.1901
-64	18.5668
-63	14.2763
-62	15.5185
-61	14.8683
-60	20.5498
-59	14.3681
-58	16.6888
-57	17.281
-56	17.9315
-55	25.2853
-54	20.1566
-53	16.1666
-52	12.1906
-51	17.4741
-50	11.1989
-49	13.9609
-48	18.7164
-47	19.8481
-46	26.4353
-45	25.7667
-44	28.6781
-43	29.2355
-42	23.2174
-41	21.389
-40	21.0349
-39	20.2979
-38	27.5888
-37	19.1831
-36	20.4869
-35	21.1673
-34	16.378
-33	26.7227
-32	23.3782
-31	19.8045
-30	21.3626
-29	16.9839
-28	21.901
-27	21.3188
-26	16.6966
-25	17.0988
-24	25.6353
-23	20.25
-22	16.5826
-21	29.6972
-20	20.3705
-19	18.6115
-18	19.4187
-17	14.6381
-16	21.51
-15	23.1699
-14	23.8017
-13	26.2759
-12	22.9386
-11	31.635
-10	21.4322
-9	27.5651
-8	31.4844
-7	33.9675
-6	36.9381
-5	42.748
-4	52.4945
-3	69.9181
-2	118.4369
-1	207.003
0	5916.0917
1	207.003
2	118.4369
3	69.9181
4	52.4945
5	42.748
6	36.9381
7	33.9675
8	31.4844
9	27.5651
10	21.4322
11	31.635
12	22.9386
13	26.2759
14	23.8017
15	23.1699
16	21.51
17	14.6381
18	19.4187
19	18.6115
20	20.3705
21	29.6972
22	16.5826
23	20.25
24	25.6353
25	17.0988
26	16.6966
27	21.3188
28	21.901
29	16.9839
30	21.3626
31	19.8045
32	23.3782
33	26.7227
34	16.378
35	21.1673
36	20.4869
37	19.1831
38	27.5888
39	20.2979
40	21.0349
41	21.389
42	23.2174
43	29.2355
44	28.6781
45	25.7667
46	26.4353
47	19.8481
48	18.7164
49	13.9609
50	11.1989
51	17.4741
52	12.1906
53	16.1666
54	20.1566
55	25.2853
56	17.9315
57	17.281
58	16.6888
59	14.3681
60	20.5498
61	14.8683
62	15.5185
63	14.2763
64	18.5668
65	20.1901
66	25.1346
67	21.0867
68	24.505
69	12.7252
70	22.6233
71	20.7916
72	19.9792
73	19.8651
74	19.0598
75	19.3731
76	18.4278
77	15.3828
78	24.4108
79	17.0466
80	19.267
81	19.0496
82	14.055
83	16.1233
84	13.2304
85	13.6664
86	18.6518
87	21.0763
88	17.7638
89	15.4322
90	18.1755
91	15.5395
92	15.2287
93	19.5345
94	20.5043
95	11.9144
96	19.3877
97	25.443
98	18.1626
99	16.9021
100	14.888
101	16.9884
102	16.0785
103	17.6659
104	14.9778
105	15.0493
106	14.4974
107	13.8343
108	15.8131
109	23.0385
110	18.4114
111	19.6998
112	17.7772
113	19.1248
114	15.7333
115	19.8835
116	16.1965
117	22.4983
118	17.3202
119	16.6542
120	17.4704
121	23.6767
122	16.106
123	20.81
124	14.2066
125	15.3935
126	17.7198
127	16.0311
128	18.6093
129	21.5613
130	23.4488
131	16.4081
132	19.5976
133	21.1431
134	23.6799
135	17.6519
136	21.9654
137	22.6916
138	18.1594
139	28.2922
140	15.5359
141	23.4931
142	23.7193
143	17.3355
144	20.1211
145	19.1497
146	17.2171
147	17.9322
148	17.6559
149	20.8647
150	18.1454
151	21.568
152	23.3281
153	16.5536
154	17.0482
155	18.3596
156	17.3204
157	18.7513
158	15.5022
159	19.7615
160	16.8386
161	19.0102
162	13.6944
163	15.9999
164	13.1036
165	22.1497
166	13.8932
167	19.7245
168	17.5152
169	15.8713
170	17.093
171	19.3795
172	17.024
173	15.4705
174	22.4655
175	20.912
176	17.171
177	19.438
178	14.2719
179	9.5171
180	20.5205
181	13.9143
182	12.9747
183	14.832
184	19.0459
185	19.7697
186	22.1498
187	22.1727
188	18.6696
189	14.0305
190	14.0477
191	20.7393
192	16.8559
193	17.5141
194	16.5214
195	20.0302
196	15.6247
197	19.4504
198	18.3316
199	13.8932
200	9.8783
