Position	Value
-200	1329.6825
-199	2661.7053
-198	2719.9273
-197	2717.8601
-196	2701.8324
-195	2655.8586
-194	2649.3233
-193	2620.0748
-192	2638.9443
-191	2628.8992
-190	2599.4287
-189	2711.5002
-188	2717.2374
-187	2810.1721
-186	2842.6634
-185	2810.427
-184	2794.6555
-183	2799.8015
-182	2762.2729
-181	2736.16
-180	2848.5624
-179	2825.176
-178	2723.5109
-177	2810.1121
-176	2766.5127
-175	2800.9899
-174	2796.1861
-173	2712.8282
-172	2776.7058
-171	2853.322
-170	2840.6711
-169	2827.4139
-168	2979.7839
-167	2983.039
-166	2944.7663
-165	2890.2972
-164	2865.9215
-163	2883.1424
-162	2914.328
-161	2875.5153
-160	2955.9525
-159	2945.0417
-158	2931.4444
-157	2902.2821
-156	2985.8687
-155	2874.9963
-154	2888.3091
-153	2929.1706
-152	2833.0131
-151	2966.1911
-150	2950.6044
-149	2992.0226
-148	2952.1579
-147	3025.9021
-146	2991.6359
-145	3056.4744
-144	3137.4052
-143	3059.5723
-142	3018.9491
-141	3024.8892
-140	2987.2178
-139	3022.2102
-138	3091.1568
-137	3087.8392
-136	2987.775
-135	3000.1128
-134	2959.4172
-133	2911.3433
-132	2907.27
-131	2951.0356
-130	2952.2322
-129	3062.0996
-128	3076.8597
-127	3039.569
-126	3124.2517
-125	3064.1196
-124	3010.2846
-123	3097.7542
-122	3132.3943
-121	3116.8256
-120	3023.0113
-119	3100.0274
-118	3059.6241
-117	3127.8487
-116	3099.0117
-115	3117.4777
-114	3093.2594
-113	3073.6899
-112	3096.7693
-111	3093.3193
-110	3043.8503
-109	3020.2551
-108	3094.8068
-107	3072.3827
-106	3081.6281
-105	3239.0104
-104	3206.9662
-103	3259.133
-102	3311.4407
-101	3288.2179
-100	3256.2927
-99	3237.2662
-98	3240.2226
-97	3286.4084
-96	3306.5207
-95	3251.0118
-94	3262.544
-93	3328.7182
-92	3306.0115
-91	3276.0917
-90	3275.9694
-89	3237.3107
-88	3287.1717
-87	3458.5708
-86	3418.2116
-85	3378.4288
-84	3408.8471
-83	3286.2943
-82	3331.5173
-81	3360.4583
-80	3284.4845
-79	3332.6958
-78	3390.8952
-77	3372.893
-76	3408.5452
-75	3445.8305
-74	3393.7108
-73	3364.5962
-72	3344.9875
-71	3333.6953
-70	3243.0486
-69	3312.4711
-68	3326.3732
-67	3364.8354
-66	3328.5032
-65	3333.3405
-64	3342.2226
-63	3492.5479
-62	3437.5149
-61	3484.9237
-60	3640.6803
-59	3633.8348
-58	3576.5407
-57	3573.2758
-56	3587.2164
-55	3578.4782
-54	3624.9715
-53	3644.9769
-52	3665.9859
-51	3677.0818
-50	3637.9135
-49	3633.8273
-48	3609.485
-47	3645.0286
-46	3616.6893
-45	3733.0867
-44	3731.9356
-43	3790.5685
-42	3864.2748
-41	3727.0098
-40	3678.6611
-39	3838.6754
-38	3759.9931
-37	3793.909
-36	3832.702
-35	3754.2653
-34	3721.5727
-33	3833.6214
-32	3899.2916
-31	3957.3597
-30	3976.6705
-29	3980.548
-28	3873.4687
-27	3891.8923
-26	3882.0806
-25	3938.7858
-24	3847.5104
-23	3950.6316
-22	4108.8977
-21	4251.3122
-20	3703.786
-19	3557.6237
-18	3643.3964
-17	3575.026
-16	3646.0851
-15	4001.9525
-14	4259.472
-13	4549.3517
-12	4785.079
-11	4855.2492
-10	4974.3688
-9	5336.034
-8	5538.9965
-7	5658.1297
-6	6057.3212
-5	6553.1882
-4	7681.9146
-3	9484.9497
-2	12580.2184
-1	19546.0302
0	94812.268
1	19546.0302
2	12580.2184
3	9484.9497
4	7681.9146
5	6553.1882
6	6057.3212
7	5658.1297
8	5538.9965
9	5336.034
10	4974.3688
11	4855.2492
12	4785.079
13	4549.3517
14	4259.472
15	4001.9525
16	3646.0851
17	3575.026
18	3643.3964
19	3557.6237
20	3703.786
21	4251.3122
22	4108.8977
23	3950.6316
24	3847.5104
25	3938.7858
26	3882.0806
27	3891.8923
28	3873.4687
29	3980.548
30	3976.6705
31	3957.3597
32	3899.2916
33	3833.6214
34	3721.5727
35	3754.2653
36	3832.702
37	3793.909
38	3759.9931
39	3838.6754
40	3678.6611
41	3727.0098
42	3864.2748
43	3790.5685
44	3731.9356
45	3733.0867
46	3616.6893
47	3645.0286
48	3609.485
49	3633.8273
50	3637.9135
51	3677.0818
52	3665.9859
53	3644.9769
54	3624.9715
55	3578.4782
56	3587.2164
57	3573.2758
58	3576.5407
59	3633.8348
60	3640.6803
61	3484.9237
62	3437.5149
63	3492.5479
64	3342.2226
65	3333.3405
66	3328.5032
67	3364.8354
68	3326.3732
69	3312.4711
70	3243.0486
71	3333.6953
72	3344.9875
73	3364.5962
74	3393.7108
75	3445.8305
76	3408.5452
77	3372.893
78	3390.8952
79	3332.6958
80	3284.4845
81	3360.4583
82	3331.5173
83	3286.2943
84	3408.8471
85	3378.4288
86	3418.2116
87	3458.5708
88	3287.1717
89	3237.3107
90	3275.9694
91	3276.0917
92	3306.0115
93	3328.7182
94	3262.544
95	3251.0118
96	3306.5207
97	3286.4084
98	3240.2226
99	3237.2662
100	3256.2927
101	3288.2179
102	3311.4407
103	3259.133
104	3206.9662
105	3239.0104
106	3081.6281
107	3072.3827
108	3094.8068
109	3020.2551
110	3043.8503
111	3093.3193
112	3096.7693
113	3073.6899
114	3093.2594
115	3117.4777
116	3099.0117
117	3127.8487
118	3059.6241
119	3100.0274
120	3023.0113
121	3116.8256
122	3132.3943
123	3097.7542
124	3010.2846
125	3064.1196
126	3124.2517
127	3039.569
128	3076.8597
129	3062.0996
130	2952.2322
131	2951.0356
132	2907.27
133	2911.3433
134	2959.4172
135	3000.1128
136	2987.775
137	3087.8392
138	3091.1568
139	3022.2102
140	2987.2178
141	3024.8892
142	3018.9491
143	3059.5723
144	3137.4052
145	3056.4744
146	2991.6359
147	3025.9021
148	2952.1579
149	2992.0226
150	2950.6044
151	2966.1911
152	2833.0131
153	2929.1706
154	2888.3091
155	2874.9963
156	2985.8687
157	2902.2821
158	2931.4444
159	2945.0417
160	2955.9525
161	2875.5153
162	2914.328
163	2883.1424
164	2865.9215
165	2890.2972
166	2944.7663
167	2983.039
168	2979.7839
169	2827.4139
170	2840.6711
171	2853.322
172	2776.7058
173	2712.8282
174	2796.1861
175	2800.9899
176	2766.5127
177	2810.1121
178	2723.5109
179	2825.176
180	2848.5624
181	2736.16
182	2762.2729
183	2799.8015
184	2794.6555
185	2810.427
186	2842.6634
187	2810.1721
188	2717.2374
189	2711.5002
190	2599.4287
191	2628.8992
192	2638.9443
193	2620.0748
194	2649.3233
195	2655.8586
196	2701.8324
197	2717.8601
198	2719.9273
199	2661.7053
200	1329.6825
