Position	Value
-200	20950.7
-199	20932.3
-198	21021.9
-197	20884.2
-196	20834.1
-195	20898.9
-194	21047.8
-193	20710.6
-192	21115.9
-191	21089.7
-190	20960.8
-189	20876
-188	20866.3
-187	20960
-186	21395
-185	21023.2
-184	21022.8
-183	21127.7
-182	20971.7
-181	21148.6
-180	21067
-179	21142.4
-178	21079.4
-177	21058.7
-176	20998.8
-175	21207.3
-174	21118.5
-173	21346.9
-172	21141.1
-171	21092.7
-170	21280.6
-169	21287.3
-168	21156.7
-167	21110.7
-166	21224.3
-165	21123.6
-164	21106.6
-163	21239.1
-162	21516.3
-161	21239.2
-160	21448.3
-159	21267
-158	21464.4
-157	21484.1
-156	21499.9
-155	21342.4
-154	21481.6
-153	21342.5
-152	21436.8
-151	21472.2
-150	21072.6
-149	21761.6
-148	21723.2
-147	21650.4
-146	21725.2
-145	21511
-144	21268.7
-143	21070.2
-142	21113.9
-141	21222.7
-140	21076.4
-139	21502.7
-138	21427
-137	21280
-136	21311.1
-135	21386.2
-134	21310.6
-133	21484.5
-132	21536.3
-131	21336.5
-130	21296
-129	21205.4
-128	21653.4
-127	21407
-126	21448.2
-125	21570.6
-124	21508.7
-123	21522.2
-122	21515.5
-121	21454.7
-120	21459.6
-119	21537.9
-118	21514.3
-117	21742.5
-116	21729.7
-115	21840.7
-114	21748.1
-113	21611.1
-112	21754
-111	21855.7
-110	22186.1
-109	22104.6
-108	21737.5
-107	21969.5
-106	21890.5
-105	21998.3
-104	22011.1
-103	21860.5
-102	21795.2
-101	22039.8
-100	21845.6
-99	21893.8
-98	21783.6
-97	21734.6
-96	21999
-95	21721.3
-94	22087.4
-93	21708.2
-92	21870.9
-91	21779
-90	21888.1
-89	22157.7
-88	22045.9
-87	22047.6
-86	21966.4
-85	22082
-84	22173.8
-83	22061.1
-82	22348.2
-81	22251.3
-80	21781.6
-79	21879.8
-78	21660.1
-77	21779.8
-76	21496.8
-75	21909.8
-74	21680.2
-73	21679
-72	21973.2
-71	21938.7
-70	21822.7
-69	21752.7
-68	22054
-67	21955.8
-66	22053.5
-65	22005.5
-64	22161.4
-63	22426.4
-62	22240.7
-61	22377.7
-60	22580.4
-59	22839.1
-58	22845.4
-57	22984.8
-56	22684.9
-55	22614.9
-54	22480.8
-53	22604.2
-52	22113.6
-51	22045.7
-50	21698.3
-49	21699.2
-48	21387
-47	21482.6
-46	21583.8
-45	21827.1
-44	21582.4
-43	21739.2
-42	22054
-41	21764.8
-40	22056
-39	22165.9
-38	22174.2
-37	22417.8
-36	22724.5
-35	22714.6
-34	22901.3
-33	23385.7
-32	23863.5
-31	24428.8
-30	25061.8
-29	25582.3
-28	25659.6
-27	25401.4
-26	24672.9
-25	24055.5
-24	23107.4
-23	21659
-22	22107.2
-21	23020.1
-20	23462.2
-19	24278.1
-18	25268.2
-17	25324.4
-16	26118.2
-15	26933.9
-14	27229
-13	27960
-12	28363.6
-11	28997.8
-10	29582.9
-9	30524.7
-8	32113.9
-7	33571.6
-6	35177.1
-5	38505.6
-4	39232.2
-3	42594.1
-2	51238.6
-1	50579.7
0	268543
1	50579.7
2	51238.6
3	42594.1
4	39232.2
5	38505.6
6	35177.1
7	33571.6
8	32113.9
9	30524.7
10	29582.9
11	28997.8
12	28363.6
13	27960
14	27229
15	26933.9
16	26118.2
17	25324.4
18	25268.2
19	24278.1
20	23462.2
21	23020.1
22	22107.2
23	21659
24	23107.4
25	24055.5
26	24672.9
27	25401.4
28	25659.6
29	25582.3
30	25061.8
31	24428.8
32	23863.5
33	23385.7
34	22901.3
35	22714.6
36	22724.5
37	22417.8
38	22174.2
39	22165.9
40	22056
41	21764.8
42	22054
43	21739.2
44	21582.4
45	21827.1
46	21583.8
47	21482.6
48	21387
49	21699.2
50	21698.3
51	22045.7
52	22113.6
53	22604.2
54	22480.8
55	22614.9
56	22684.9
57	22984.8
58	22845.4
59	22839.1
60	22580.4
61	22377.7
62	22240.7
63	22426.4
64	22161.4
65	22005.5
66	22053.5
67	21955.8
68	22054
69	21752.7
70	21822.7
71	21938.7
72	21973.2
73	21679
74	21680.2
75	21909.8
76	21496.8
77	21779.8
78	21660.1
79	21879.8
80	21781.6
81	22251.3
82	22348.2
83	22061.1
84	22173.8
85	22082
86	21966.4
87	22047.6
88	22045.9
89	22157.7
90	21888.1
91	21779
92	21870.9
93	21708.2
94	22087.4
95	21721.3
96	21999
97	21734.6
98	21783.6
99	21893.8
100	21845.6
101	22039.8
102	21795.2
103	21860.5
104	22011.1
105	21998.3
106	21890.5
107	21969.5
108	21737.5
109	22104.6
110	22186.1
111	21855.7
112	21754
113	21611.1
114	21748.1
115	21840.7
116	21729.7
117	21742.5
118	21514.3
119	21537.9
120	21459.6
121	21454.7
122	21515.5
123	21522.2
124	21508.7
125	21570.6
126	21448.2
127	21407
128	21653.4
129	21205.4
130	21296
131	21336.5
132	21536.3
133	21484.5
134	21310.6
135	21386.2
136	21311.1
137	21280
138	21427
139	21502.7
140	21076.4
141	21222.7
142	21113.9
143	21070.2
144	21268.7
145	21511
146	21725.2
147	21650.4
148	21723.2
149	21761.6
150	21072.6
151	21472.2
152	21436.8
153	21342.5
154	21481.6
155	21342.4
156	21499.9
157	21484.1
158	21464.4
159	21267
160	21448.3
161	21239.2
162	21516.3
163	21239.1
164	21106.6
165	21123.6
166	21224.3
167	21110.7
168	21156.7
169	21287.3
170	21280.6
171	21092.7
172	21141.1
173	21346.9
174	21118.5
175	21207.3
176	20998.8
177	21058.7
178	21079.4
179	21142.4
180	21067
181	21148.6
182	20971.7
183	21127.7
184	21022.8
185	21023.2
186	21395
187	20960
188	20866.3
189	20876
190	20960.8
191	21089.7
192	21115.9
193	20710.6
194	21047.8
195	20898.9
196	20834.1
197	20884.2
198	21021.9
199	20932.3
200	20950.7
