Position	Value
-200	72816.2511
-199	146257.146
-198	145680.2598
-197	145468.5682
-196	144938.314
-195	145008.0351
-194	144900.5873
-193	144631.7434
-192	145936.5247
-191	146021.1572
-190	145524.799
-189	145859.0992
-188	146123.9825
-187	146516.9738
-186	146080.926
-185	145869.779
-184	145820.4872
-183	147007.7359
-182	146614.9762
-181	146055.14
-180	146790.5427
-179	145847.791
-178	145542.5486
-177	147254.906
-176	147461.6568
-175	147524.4806
-174	147857.7478
-173	147486.2045
-172	148704.4223
-171	147570.3038
-170	148357.2979
-169	147558.7546
-168	147347.4018
-167	147950.141
-166	147803.0204
-165	148145.2575
-164	148293.228
-163	147447.9259
-162	147743.9837
-161	148021.6653
-160	147206.451
-159	147104.558
-158	147698.0861
-157	147533.3362
-156	147442.1237
-155	147410.5322
-154	147163.6665
-153	149033.2746
-152	148080.1182
-151	148797.7154
-150	147907.3813
-149	148206.3738
-148	148807.5314
-147	148641.9727
-146	148528.9056
-145	149737.5851
-144	149526.8363
-143	149099.9919
-142	147733.2638
-141	149094.2818
-140	148019.1464
-139	149004.9272
-138	149402.6609
-137	148761.3213
-136	148770.9152
-135	147887.5895
-134	148463.229
-133	148651.9306
-132	148624.1989
-131	148537.9563
-130	148377.6182
-129	148636.638
-128	148002.4673
-127	148047.3731
-126	148074.0176
-125	147116.3394
-124	148389.2542
-123	147846.2605
-122	148181.6987
-121	147571.3465
-120	149221.6145
-119	149502.2796
-118	149276.4502
-117	150818.3983
-116	149870.5958
-115	150586.806
-114	151317.1387
-113	151055.4134
-112	150796.2534
-111	150769.9331
-110	150837.5533
-109	151057.4004
-108	151564.6431
-107	151109.3847
-106	149911.9571
-105	151096.9752
-104	149390.3178
-103	149544.594
-102	148807.0926
-101	148846.795
-100	149435.8756
-99	149533.5615
-98	149712.0158
-97	149724.7438
-96	150044.1773
-95	149128.8604
-94	150556.3161
-93	150292.7681
-92	150795.208
-91	150190.6713
-90	151243.7106
-89	151564.8601
-88	151595.2177
-87	151964.1248
-86	152717.984
-85	153400.6471
-84	153877.6394
-83	153688.4846
-82	153927.7967
-81	153784.0066
-80	153691.1518
-79	153311.2989
-78	152165.418
-77	151644.3323
-76	150345.8131
-75	150992.7599
-74	149516.3004
-73	150731.8727
-72	150086.2293
-71	149471.4314
-70	149294.0335
-69	149735.0519
-68	149846.8176
-67	149733.7307
-66	151047.6056
-65	151256.9556
-64	152907.1044
-63	153091.1055
-62	152516.8354
-61	154648.3748
-60	155281.1091
-59	155437.5814
-58	156992.2928
-57	158643.3444
-56	159399.6178
-55	160254.6952
-54	159730.259
-53	158183.7287
-52	157748.7027
-51	154903.5007
-50	152734.9319
-49	151080.6836
-48	149628.9897
-47	149175.6048
-46	149228.9142
-45	149663.8031
-44	148927.509
-43	149846.4175
-42	149720.4008
-41	149811.8302
-40	150129.4617
-39	151091.8816
-38	152102.8215
-37	152861.3923
-36	156034.0111
-35	155525.3238
-34	158260.5686
-33	159711.6921
-32	162878.1754
-31	164053.4828
-30	169095.0546
-29	173875.3895
-28	177640.6531
-27	180775.9512
-26	179343.6647
-25	177852.5041
-24	173118.5232
-23	164777.0074
-22	162113.203
-21	163459.5652
-20	167919.1623
-19	170839.0957
-18	175409.4554
-17	179306.1888
-16	184583.5832
-15	188197.6304
-14	189739.0854
-13	195772.1855
-12	202253.8245
-11	209602.0314
-10	221776.0117
-9	230870.8635
-8	249100.9042
-7	259892.4349
-6	276842.7006
-5	302773.6006
-4	312603.2264
-3	343034.2909
-2	423319.4425
-1	436691.9601
0	1438485.7126
1	436691.9601
2	423319.4425
3	343034.2909
4	312603.2264
5	302773.6006
6	276842.7006
7	259892.4349
8	249100.9042
9	230870.8635
10	221776.0117
11	209602.0314
12	202253.8245
13	195772.1855
14	189739.0854
15	188197.6304
16	184583.5832
17	179306.1888
18	175409.4554
19	170839.0957
20	167919.1623
21	163459.5652
22	162113.203
23	164777.0074
24	173118.5232
25	177852.5041
26	179343.6647
27	180775.9512
28	177640.6531
29	173875.3895
30	169095.0546
31	164053.4828
32	162878.1754
33	159711.6921
34	158260.5686
35	155525.3238
36	156034.0111
37	152861.3923
38	152102.8215
39	151091.8816
40	150129.4617
41	149811.8302
42	149720.4008
43	149846.4175
44	148927.509
45	149663.8031
46	149228.9142
47	149175.6048
48	149628.9897
49	151080.6836
50	152734.9319
51	154903.5007
52	157748.7027
53	158183.7287
54	159730.259
55	160254.6952
56	159399.6178
57	158643.3444
58	156992.2928
59	155437.5814
60	155281.1091
61	154648.3748
62	152516.8354
63	153091.1055
64	152907.1044
65	151256.9556
66	151047.6056
67	149733.7307
68	149846.8176
69	149735.0519
70	149294.0335
71	149471.4314
72	150086.2293
73	150731.8727
74	149516.3004
75	150992.7599
76	150345.8131
77	151644.3323
78	152165.418
79	153311.2989
80	153691.1518
81	153784.0066
82	153927.7967
83	153688.4846
84	153877.6394
85	153400.6471
86	152717.984
87	151964.1248
88	151595.2177
89	151564.8601
90	151243.7106
91	150190.6713
92	150795.208
93	150292.7681
94	150556.3161
95	149128.8604
96	150044.1773
97	149724.7438
98	149712.0158
99	149533.5615
100	149435.8756
101	148846.795
102	148807.0926
103	149544.594
104	149390.3178
105	151096.9752
106	149911.9571
107	151109.3847
108	151564.6431
109	151057.4004
110	150837.5533
111	150769.9331
112	150796.2534
113	151055.4134
114	151317.1387
115	150586.806
116	149870.5958
117	150818.3983
118	149276.4502
119	149502.2796
120	149221.6145
121	147571.3465
122	148181.6987
123	147846.2605
124	148389.2542
125	147116.3394
126	148074.0176
127	148047.3731
128	148002.4673
129	148636.638
130	148377.6182
131	148537.9563
132	148624.1989
133	148651.9306
134	148463.229
135	147887.5895
136	148770.9152
137	148761.3213
138	149402.6609
139	149004.9272
140	148019.1464
141	149094.2818
142	147733.2638
143	149099.9919
144	149526.8363
145	149737.5851
146	148528.9056
147	148641.9727
148	148807.5314
149	148206.3738
150	147907.3813
151	148797.7154
152	148080.1182
153	149033.2746
154	147163.6665
155	147410.5322
156	147442.1237
157	147533.3362
158	147698.0861
159	147104.558
160	147206.451
161	148021.6653
162	147743.9837
163	147447.9259
164	148293.228
165	148145.2575
166	147803.0204
167	147950.141
168	147347.4018
169	147558.7546
170	148357.2979
171	147570.3038
172	148704.4223
173	147486.2045
174	147857.7478
175	147524.4806
176	147461.6568
177	147254.906
178	145542.5486
179	145847.791
180	146790.5427
181	146055.14
182	146614.9762
183	147007.7359
184	145820.4872
185	145869.779
186	146080.926
187	146516.9738
188	146123.9825
189	145859.0992
190	145524.799
191	146021.1572
192	145936.5247
193	144631.7434
194	144900.5873
195	145008.0351
196	144938.314
197	145468.5682
198	145680.2598
199	146257.146
200	72816.2511
